Bvp Num, Bvp
0, 573602, 61
1, 244215, 61
2, 156050, 61
3, 132426, 61
4, 126100, 61
5, 124378, 61
6, 123939, 61
7, 123731, 61
8, 123691, 61
9, 123694, 61
10, 123714, 61
11, 123713, 61
12, 123572, 61
13, 123636, 61
14, 123619, 61
15, 123626, 61
16, 123613, 61
17, 123613, 61
18, 123730, 61
19, 123587, 61
20, 123604, 61
21, 123415, 61
22, 123521, 61
23, 123506, 61
24, 123489, 61
25, 123495, 131
26, 123534, 131
27, 2061617, 131
28, 2052023, 131
29, 2052407, 131
30, 2052093, 131
31, 2052075, 131
32, 2051187, 131
33, 2050942, 131
34, 2051149, 131
35, 2050660, 131
36, 2050704, 131
37, 2051562, 131
38, 2051283, 131
39, 2051091, 131
40, 2086273, 131
41, 2095194, 131
42, -2096961, 131
43, -2096207, 131
44, -2096052, 131
45, -2096027, 131
46, -2096012, 131
47, -2096431, 131
48, -2096188, 131
49, -2095996, 131
50, -2096002, 109
51, 1586521, 109
52, 1341742, 109
53, 1276134, 109
54, 1258526, 109
55, 1253824, 109
56, 1252741, 109
57, 1252398, 109
58, 1252515, 109
59, 1252633, 109
60, 1252738, 109
61, 1252863, 109
62, 1253138, 109
63, 794910, 109
64, 672210, 109
65, 639215, 109
66, 630383, 109
67, 628087, 109
68, 627522, 109
69, 627541, 109
70, 627407, 109
71, 627383, 109
72, 627376, 109
73, 627099, 109
74, 626939, 109
75, 626779, 98
76, -1019008, 98
77, -1460703, 98
78, -1579651, 98
79, -1611893, 98
80, -1620719, 98
81, -1623399, 98
82, -1624362, 98
83, -1624926, 98
84, -1625221, 98
85, -1625380, 98
86, -1625739, 98
87, -1625831, 98
88, -353963, 98
89, -12834, 98
90, 78617, 98
91, 103414, 98
92, 109803, 98
93, 111470, 98
94, 111923, 98
95, 112161, 98
96, 112154, 98
97, 112156, 98
98, 112256, 98
99, 112183, 98
100, 112024, 89
101, 112002, 89
102, 111983, 89
103, 111992, 89
104, 111781, 89
105, 111857, 89
106, 111708, 89
107, 111616, 89
108, 111326, 89
109, 111350, 89
110, 111200, 89
111, 111388, 89
112, 111254, 89
113, 111328, 89
114, 111425, 89
115, 111597, 89
116, 111533, 89
117, 111751, 89
118, 111809, 89
119, 112050, 89
120, 112274, 89
121, 112564, 89
122, 112513, 89
123, 112768, 89
124, 112984, 89
125, 113048, 89
126, 113206, 89
127, 113339, 89
128, 113365, 89
129, 113575, 89
130, 113745, 89
131, 113869, 89
132, 113977, 89
133, 114130, 89
134, 114181, 89
135, 114248, 89
136, 114238, 89
137, 114460, 89
138, 114645, 89
139, 114674, 89
140, 114845, 89
141, 114868, 89
142, 115108, 89
143, 115215, 89
144, 115165, 89
145, 115212, 89
146, 115351, 89
147, 115545, 89
148, 115811, 89
149, 115821, 89
150, 115338, 89
151, 114996, 89
152, 114149, 89
153, 113474, 89
154, 113039, 89
155, 112704, 89
156, 112422, 89
157, 112120, 89
158, 111680, 89
159, 111519, 89
160, 111140, 89
161, 110851, 89
162, 110543, 89
163, 110107, 89
164, 109727, 89
165, 109491, 89
166, 109080, 89
167, 108841, 89
168, 108912, 89
169, 108951, 89
170, 109250, 89
171, 109270, 89
172, 109155, 89
173, 109208, 89
174, 109090, 89
175, 108929, 87
176, 108910, 87
177, 108764, 87
178, 109071, 87
179, 109100, 87
180, 109301, 87
181, 109452, 87
182, 109853, 87
183, 109971, 87
184, 109933, 87
185, 110002, 87
186, 109930, 87
187, 110019, 87
188, 110127, 87
189, 110170, 87
190, 110082, 87
191, 109758, 87
192, 109358, 87
193, 109109, 87
194, 108827, 87
195, 108596, 87
196, 108136, 87
197, 107506, 87
198, 107445, 87
199, 107431, 87
200, 107086, 87
201, 107256, 87
202, 107036, 87
203, 106805, 87
204, 106552, 87
205, 106265, 87
206, 106032, 87
207, 106066, 87
208, 105942, 87
209, 105900, 87
210, 105916, 87
211, 105660, 87
212, 105528, 87
213, 105381, 87
214, 105161, 87
215, 104890, 87
216, 104811, 87
217, 104944, 87
218, 105436, 87
219, 106540, 87
220, 108409, 87
221, 110480, 87
222, 112599, 87
223, 114685, 87
224, 116338, 87
225, 118045, 87
226, 119418, 87
227, 120573, 87
228, 121661, 87
229, 122538, 87
230, 123489, 87
231, 124108, 87
232, 124515, 87
233, 124709, 87
234, 124793, 87
235, 124507, 87
236, 124372, 87
237, 124163, 87
238, 123582, 87
239, 123280, 87
240, 122971, 87
241, 122506, 87
242, 122303, 87
243, 121854, 87
244, 121415, 87
245, 121314, 87
246, 121105, 87
247, 120950, 87
248, 120739, 87
249, 120927, 87
250, 120972, 87
251, 121317, 87
252, 121565, 87
253, 121970, 87
254, 122626, 87
255, 123139, 87
256, 123643, 87
257, 124137, 87
258, 124436, 87
259, 124959, 87
260, 125102, 87
261, 125036, 87
262, 125174, 87
263, 124929, 87
264, 124508, 87
265, 124137, 87
266, 123904, 87
267, 123358, 87
268, 123066, 87
269, 122637, 87
270, 122485, 87
271, 122228, 87
272, 122147, 87
273, 122202, 87
274, 122217, 87
275, 122131, 87
276, 122415, 87
277, 122415, 87
278, 122525, 87
279, 122735, 87
280, 122822, 87
281, 122885, 87
282, 122923, 87
283, 123297, 87
284, 123118, 87
285, 123221, 87
286, 123374, 87
287, 123469, 87
288, 123605, 87
289, 123529, 87
290, 123883, 87
291, 124267, 87
292, 124438, 87
293, 124844, 87
294, 125151, 87
295, 125637, 87
296, 126020, 87
297, 126436, 87
298, 126519, 87
299, 126887, 87
300, 127347, 87
301, 127618, 87
302, 128112, 87
303, 128523, 87
304, 128540, 87
305, 128871, 87
306, 129118, 87
307, 129382, 87
308, 129755, 87
309, 130013, 87
310, 130114, 87
311, 130062, 87
312, 129944, 87
313, 129812, 87
314, 129598, 87
315, 129167, 87
316, 129015, 87
317, 128317, 87
318, 127991, 87
319, 127722, 87
320, 127393, 87
321, 127185, 87
322, 126980, 87
323, 126779, 87
324, 126256, 87
325, 126251, 84
326, 126249, 84
327, 126130, 84
328, 125897, 84
329, 126077, 84
330, 126043, 84
331, 125886, 84
332, 125997, 84
333, 125727, 84
334, 125794, 84
335, 125502, 84
336, 125143, 84
337, 124846, 84
338, 125014, 84
339, 125049, 84
340, 125050, 84
341, 124948, 84
342, 124937, 84
343, 124678, 84
344, 124523, 84
345, 124271, 84
346, 123910, 84
347, 123750, 84
348, 123616, 84
349, 123208, 84
350, 123053, 84
351, 122884, 84
352, 122536, 84
353, 122802, 84
354, 122844, 84
355, 122997, 84
356, 123173, 84
357, 123350, 84
358, 123420, 84
359, 123256, 84
360, 123477, 84
361, 123973, 84
362, 124868, 84
363, 125579, 84
364, 126301, 84
365, 127260, 84
366, 127903, 84
367, 128298, 84
368, 128914, 84
369, 129717, 84
370, 130478, 84
371, 131262, 84
372, 131768, 84
373, 132425, 84
374, 132797, 84
375, 133296, 84
376, 133905, 84
377, 134532, 84
378, 135052, 84
379, 135660, 84
380, 136213, 84
381, 136396, 84
382, 136874, 84
383, 137020, 84
384, 137223, 84
385, 137173, 84
386, 137036, 84
387, 136815, 84
388, 136610, 84
389, 136468, 84
390, 136182, 84
391, 135825, 84
392, 135479, 84
393, 135118, 84
394, 134845, 84
395, 134684, 84
396, 134414, 84
397, 134373, 84
398, 134135, 84
399, 134022, 84
400, 135039, 84
401, 135394, 84
402, 135595, 84
403, 135778, 84
404, 135855, 84
405, 135805, 84
406, 135656, 84
407, 135594, 84
408, 135484, 84
409, 135316, 84
410, 134970, 84
411, 135020, 84
412, 134738, 84
413, 134616, 84
414, 134401, 84
415, 134234, 84
416, 134019, 84
417, 133858, 84
418, 133698, 84
419, 133551, 84
420, 133475, 84
421, 133415, 84
422, 133442, 84
423, 133690, 84
424, 133491, 84
425, 134231, 84
426, 134262, 84
427, 134250, 84
428, 134295, 84
429, 134457, 84
430, 134524, 84
431, 134680, 84
432, 134785, 84
433, 134794, 84
434, 135037, 84
435, 135064, 84
436, 135227, 84
437, 135456, 84
438, 135440, 84
439, 135753, 84
440, 135859, 84
441, 135974, 84
442, 135999, 84
443, 136237, 84
444, 136213, 84
445, 136355, 84
446, 136690, 84
447, 136836, 84
448, 136857, 84
449, 136938, 84
450, 135666, 84
451, 135493, 84
452, 134759, 84
453, 134221, 84
454, 133905, 84
455, 133445, 84
456, 133029, 84
457, 132806, 84
458, 132412, 84
459, 132163, 84
460, 131908, 84
461, 131840, 84
462, 131914, 84
463, 131746, 84
464, 131834, 84
465, 131586, 84
466, 131539, 84
467, 131485, 84
468, 131437, 84
469, 131348, 84
470, 131357, 84
471, 131547, 84
472, 131501, 84
473, 131591, 84
474, 131605, 84
475, 132218, 88
476, 132403, 88
477, 132406, 88
478, 132570, 88
479, 132507, 88
480, 132656, 88
481, 132988, 88
482, 133062, 88
483, 133341, 88
484, 133531, 88
485, 133791, 88
486, 133973, 88
487, 134317, 88
488, 134668, 88
489, 134744, 88
490, 134971, 88
491, 135223, 88
492, 135296, 88
493, 135442, 88
494, 135692, 88
495, 135786, 88
496, 135822, 88
497, 135827, 88
498, 135970, 88
499, 135793, 88
500, 131930, 88
501, 131354, 88
502, 130908, 88
503, 130519, 88
504, 130206, 88
505, 130004, 88
506, 129551, 88
507, 129201, 88
508, 129180, 88
509, 128959, 88
510, 128870, 88
511, 128466, 88
512, 128472, 88
513, 128412, 88
514, 128231, 88
515, 128304, 88
516, 128358, 88
517, 128187, 88
518, 128241, 88
519, 128152, 88
520, 128112, 88
521, 127926, 88
522, 127808, 88
523, 127814, 88
524, 127845, 88
525, 127906, 88
526, 127892, 88
527, 128075, 88
528, 128238, 88
529, 128484, 88
530, 128534, 88
531, 128811, 88
532, 129009, 88
533, 129481, 88
534, 129734, 88
535, 129994, 88
536, 130367, 88
537, 130315, 88
538, 130601, 88
539, 130872, 88
540, 131138, 88
541, 131347, 88
542, 131493, 88
543, 131756, 88
544, 131972, 88
545, 132110, 88
546, 132294, 88
547, 132477, 88
548, 132182, 88
549, 131923, 88
550, 129251, 88
551, 129166, 88
552, 129049, 88
553, 129363, 88
554, 129296, 88
555, 129318, 88
556, 129422, 88
557, 129372, 88
558, 129386, 88
559, 129363, 88
560, 129368, 88
561, 129115, 88
562, 129080, 88
563, 129045, 88
564, 129069, 88
565, 129199, 88
566, 129195, 88
567, 129451, 88
568, 129439, 88
569, 129376, 88
570, 129503, 88
571, 129589, 88
572, 129642, 88
573, 129925, 88
574, 130212, 88
575, 132061, 88
576, 132069, 88
577, 132407, 88
578, 132617, 88
579, 132769, 88
580, 133228, 88
581, 133591, 88
582, 133908, 88
583, 134029, 88
584, 134396, 88
585, 134425, 88
586, 134699, 88
587, 134883, 88
588, 135333, 88
589, 135525, 88
590, 135908, 88
591, 135992, 88
592, 135952, 88
593, 135892, 88
594, 135526, 88
595, 135434, 88
596, 135028, 88
597, 134632, 88
598, 133965, 88
599, 133568, 88
600, 130091, 88
601, 129756, 88
602, 129544, 88
603, 129544, 88
604, 129595, 88
605, 129802, 88
606, 129869, 88
607, 129906, 88
608, 130115, 88
609, 130210, 88
610, 130472, 88
611, 130690, 88
612, 131081, 88
613, 131416, 88
614, 131802, 88
615, 132240, 88
616, 132803, 88
617, 133311, 88
618, 133956, 88
619, 134449, 88
620, 134835, 88
621, 135303, 88
622, 135842, 88
623, 136162, 88
624, 136288, 88
625, 138558, 88
626, 138777, 88
627, 138847, 88
628, 138996, 88
629, 139361, 88
630, 139459, 88
631, 139708, 88
632, 140011, 88
633, 140272, 88
634, 140772, 88
635, 141267, 88
636, 141762, 88
637, 142152, 88
638, 142596, 88
639, 143090, 88
640, 143635, 88
641, 143758, 88
642, 143898, 88
643, 143783, 88
644, 143944, 88
645, 143827, 88
646, 143515, 88
647, 143288, 88
648, 143049, 88
649, 142902, 88
650, 141871, 88
651, 141835, 88
652, 142062, 88
653, 142482, 88
654, 142820, 88
655, 143040, 88
656, 143249, 88
657, 143346, 88
658, 143306, 88
659, 143437, 88
660, 143490, 88
661, 143530, 88
662, 143370, 88
663, 143178, 88
664, 142975, 88
665, 142924, 88
666, 142864, 88
667, 142786, 88
668, 142800, 88
669, 142900, 88
670, 143139, 88
671, 143237, 88
672, 143401, 88
673, 143635, 88
674, 143892, 88
675, 144832, 88
676, 144453, 88
677, 144090, 88
678, 143805, 88
679, 143917, 88
680, 143584, 88
681, 143410, 88
682, 143356, 88
683, 143337, 88
684, 143361, 88
685, 143212, 88
686, 143343, 88
687, 143116, 88
688, 143291, 88
689, 143122, 88
690, 143202, 88
691, 143429, 88
692, 143810, 88
693, 144006, 88
694, 144025, 88
695, 143907, 88
696, 143612, 88
697, 143362, 88
698, 143198, 88
699, 143006, 88
700, 144866, 81
701, 144996, 81
702, 145343, 81
703, 145485, 81
704, 145750, 81
705, 146144, 81
706, 146025, 81
707, 146038, 81
708, 146108, 81
709, 145965, 81
710, 145899, 81
711, 145957, 81
712, 145880, 81
713, 146183, 81
714, 146426, 81
715, 146310, 81
716, 146161, 81
717, 146237, 81
718, 146415, 81
719, 146427, 81
720, 146331, 81
721, 146508, 81
722, 146496, 81
723, 146366, 81
724, 146428, 81
725, 148769, 81
726, 148959, 81
727, 149058, 81
728, 149365, 81
729, 149728, 81
730, 150050, 81
731, 150289, 81
732, 150472, 81
733, 150890, 81
734, 151031, 81
735, 151481, 81
736, 151843, 81
737, 151835, 81
738, 152358, 81
739, 152913, 81
740, 153108, 81
741, 153286, 81
742, 153538, 81
743, 153698, 81
744, 154167, 81
745, 154007, 81
746, 153876, 81
747, 154168, 81
748, 153773, 81
749, 153524, 81
750, 151029, 81
751, 151029, 81
752, 150835, 81
753, 150840, 81
754, 150904, 81
755, 150984, 81
756, 151228, 81
757, 151249, 81
758, 151174, 81
759, 151647, 81
760, 151486, 81
761, 151625, 81
762, 151725, 81
763, 151994, 81
764, 152065, 81
765, 152103, 81
766, 152564, 81
767, 152533, 81
768, 152772, 81
769, 152774, 81
770, 152982, 81
771, 153334, 81
772, 153314, 81
773, 153311, 81
774, 153376, 81
775, 153352, 81
776, 153724, 81
777, 153525, 81
778, 153885, 81
779, 153953, 81
780, 153976, 81
781, 154006, 81
782, 154134, 81
783, 154520, 81
784, 154523, 81
785, 154755, 81
786, 155022, 81
787, 155186, 81
788, 155305, 81
789, 155593, 81
790, 155862, 81
791, 155938, 81
792, 156155, 81
793, 156335, 81
794, 156590, 81
795, 156963, 81
796, 157089, 81
797, 157262, 81
798, 157432, 81
799, 157661, 81
800, 159266, 81
801, 159626, 81
802, 159792, 81
803, 160055, 81
804, 160284, 81
805, 160680, 81
806, 160673, 81
807, 160683, 81
808, 160499, 81
809, 160485, 81
810, 160571, 81
811, 160224, 81
812, 159641, 81
813, 159598, 81
814, 159154, 81
815, 158586, 81
816, 158240, 81
817, 157800, 81
818, 157357, 81
819, 157180, 81
820, 156885, 81
821, 156872, 81
822, 156716, 81
823, 156348, 81
824, 156139, 81
825, 156326, 81
826, 156123, 81
827, 156080, 81
828, 156081, 81
829, 156143, 81
830, 156275, 81
831, 156316, 81
832, 156389, 81
833, 156204, 81
834, 156391, 81
835, 156185, 81
836, 156270, 81
837, 156351, 81
838, 156336, 81
839, 156111, 81
840, 155958, 81
841, 155833, 81
842, 155815, 81
843, 156001, 81
844, 156193, 81
845, 155898, 81
846, 155973, 81
847, 156104, 81
848, 155640, 81
849, 155719, 81
850, 155781, 81
851, 155827, 81
852, 155807, 81
853, 155770, 81
854, 155893, 81
855, 155897, 81
856, 156125, 81
857, 156183, 81
858, 156237, 81
859, 156412, 81
860, 156487, 81
861, 156538, 81
862, 156776, 81
863, 156781, 81
864, 157009, 81
865, 157293, 81
866, 157366, 81
867, 157287, 81
868, 157606, 81
869, 157723, 81
870, 158184, 81
871, 158366, 81
872, 158313, 81
873, 158523, 81
874, 158746, 81
875, 160375, 81
876, 160489, 81
877, 160749, 81
878, 160479, 81
879, 160363, 81
880, 160146, 81
881, 159917, 81
882, 159487, 81
883, 159109, 81
884, 158522, 81
885, 157912, 81
886, 157475, 81
887, 157166, 81
888, 156613, 81
889, 156096, 81
890, 155807, 81
891, 155528, 81
892, 155233, 81
893, 155215, 81
894, 155054, 81
895, 155180, 81
896, 155073, 81
897, 154993, 81
898, 155162, 81
899, 155124, 81
900, 155113, 81
901, 155284, 81
902, 155338, 81
903, 155646, 81
904, 155765, 81
905, 155889, 81
906, 155856, 81
907, 155960, 81
908, 156024, 81
909, 156003, 81
910, 155934, 81
911, 155986, 81
912, 156174, 81
913, 155944, 81
914, 156056, 81
915, 155987, 81
916, 156180, 81
917, 156095, 81
918, 155842, 81
919, 155908, 81
920, 155911, 81
921, 155697, 81
922, 155809, 81
923, 155791, 81
924, 155934, 81
925, 156140, 81
926, 156222, 81
927, 156456, 81
928, 156589, 81
929, 156811, 81
930, 156908, 81
931, 156939, 81
932, 157341, 81
933, 157368, 81
934, 157426, 81
935, 157463, 81
936, 157719, 81
937, 158001, 81
938, 158128, 81
939, 158120, 81
940, 158297, 81
941, 158592, 81
942, 158617, 81
943, 158940, 81
944, 158928, 81
945, 159207, 81
946, 159338, 81
947, 159821, 81
948, 159713, 81
949, 159965, 81
950, 160229, 81
951, 160533, 81
952, 160610, 81
953, 160754, 81
954, 161104, 81
955, 161242, 81
956, 161079, 81
957, 160945, 81
958, 160789, 81
959, 160534, 81
960, 160229, 81
961, 159877, 81
962, 159306, 81
963, 158854, 81
964, 158352, 81
965, 157930, 81
966, 157688, 81
967, 157311, 81
968, 156956, 81
969, 157018, 81
970, 156851, 81
971, 156844, 81
972, 156715, 81
973, 156699, 81
974, 156858, 81
975, 157080, 77
976, 157176, 77
977, 157290, 77
978, 157313, 77
979, 157350, 77
980, 157498, 77
981, 157539, 77
982, 157595, 77
983, 157784, 77
984, 157493, 77
985, 157543, 77
986, 157582, 77
987, 157356, 77
988, 157196, 77
989, 157144, 77
990, 157158, 77
991, 157319, 77
992, 157192, 77
993, 157200, 77
994, 157115, 77
995, 157236, 77
996, 157403, 77
997, 157358, 77
998, 157313, 77
999, 157512, 77
1000, 157642, 77
1001, 157632, 77
1002, 157804, 77
1003, 157828, 77
1004, 157965, 77
1005, 158162, 77
1006, 158263, 77
1007, 158253, 77
1008, 158184, 77
1009, 158372, 77
1010, 158564, 77
1011, 158690, 77
1012, 158663, 77
1013, 158776, 77
1014, 158871, 77
1015, 159138, 77
1016, 159231, 77
1017, 159384, 77
1018, 159323, 77
1019, 159515, 77
1020, 159771, 77
1021, 159788, 77
1022, 160125, 77
1023, 160179, 77
1024, 160210, 77
1025, 160616, 77
1026, 160900, 77
1027, 161050, 77
1028, 160854, 77
1029, 160763, 77
1030, 160582, 77
1031, 160245, 77
1032, 159843, 77
1033, 159370, 77
1034, 159083, 77
1035, 158633, 77
1036, 158100, 77
1037, 157780, 77
1038, 157664, 77
1039, 157288, 77
1040, 156848, 77
1041, 156403, 77
1042, 156278, 77
1043, 155915, 77
1044, 155896, 77
1045, 155711, 77
1046, 155669, 77
1047, 155328, 77
1048, 155213, 77
1049, 155116, 77
1050, 154978, 77
1051, 155041, 77
1052, 154992, 77
1053, 155086, 77
1054, 155266, 77
1055, 155220, 77
1056, 155093, 77
1057, 155085, 77
1058, 155041, 77
1059, 155008, 77
1060, 154850, 77
1061, 154936, 77
1062, 154816, 77
1063, 154647, 77
1064, 154531, 77
1065, 154607, 77
1066, 154345, 77
1067, 154287, 77
1068, 154383, 77
1069, 154449, 77
1070, 154300, 77
1071, 154504, 77
1072, 154347, 77
1073, 154403, 77
1074, 154660, 77
1075, 154672, 77
1076, 154653, 77
1077, 155026, 77
1078, 155051, 77
1079, 154931, 77
1080, 155147, 77
1081, 155118, 77
1082, 155136, 77
1083, 155395, 77
1084, 155269, 77
1085, 155871, 77
1086, 155927, 77
1087, 155794, 77
1088, 155828, 77
1089, 155859, 77
1090, 156117, 77
1091, 155987, 77
1092, 155979, 77
1093, 156071, 77
1094, 156170, 77
1095, 156369, 77
1096, 156324, 77
1097, 156262, 77
1098, 156200, 77
1099, 156343, 77
1100, 156393, 77
1101, 156569, 77
1102, 156609, 77
1103, 156553, 77
1104, 156446, 77
1105, 156409, 77
1106, 156100, 77
1107, 155790, 77
1108, 155424, 77
1109, 154865, 77
1110, 154444, 77
1111, 154123, 77
1112, 153522, 77
1113, 153079, 77
1114, 152768, 77
1115, 152334, 77
1116, 152023, 77
1117, 151650, 77
1118, 151566, 77
1119, 151138, 77
1120, 150860, 77
1121, 150631, 77
1122, 150343, 77
1123, 150209, 77
1124, 149994, 77
1125, 149854, 77
1126, 149740, 77
1127, 149575, 77
1128, 149641, 77
1129, 149464, 77
1130, 149309, 77
1131, 149165, 77
1132, 149087, 77
1133, 149263, 77
1134, 148985, 77
1135, 148835, 77
1136, 148723, 77
1137, 148590, 77
1138, 148502, 77
1139, 148428, 77
1140, 148198, 77
1141, 148137, 77
1142, 147969, 77
1143, 147840, 77
1144, 147774, 77
1145, 147599, 77
1146, 147501, 77
1147, 147513, 77
1148, 147509, 77
1149, 147438, 77
1150, 147599, 77
1151, 147703, 77
1152, 147788, 77
1153, 147828, 77
1154, 147873, 77
1155, 148021, 77
1156, 147834, 77
1157, 147770, 77
1158, 147893, 77
1159, 147842, 77
1160, 148005, 77
1161, 147816, 77
1162, 147996, 77
1163, 147734, 77
1164, 147718, 77
1165, 147727, 77
1166, 147465, 77
1167, 147563, 77
1168, 147504, 77
1169, 147483, 77
1170, 147695, 77
1171, 147728, 77
1172, 147636, 77
1173, 147763, 77
1174, 147704, 77
1175, 147739, 77
1176, 148012, 77
1177, 147936, 77
1178, 148126, 77
1179, 148228, 77
1180, 148197, 77
1181, 148359, 77
1182, 148376, 77
1183, 148213, 77
1184, 148023, 77
1185, 147761, 77
1186, 147226, 77
1187, 146870, 77
1188, 146525, 77
1189, 146073, 77
1190, 145525, 77
1191, 145048, 77
1192, 144662, 77
1193, 144127, 77
1194, 143780, 77
1195, 143384, 77
1196, 143150, 77
1197, 142939, 77
1198, 142682, 77
1199, 142313, 77
1200, 142159, 76
1201, 142171, 76
1202, 142195, 76
1203, 142043, 76
1204, 141976, 76
1205, 142148, 76
1206, 142178, 76
1207, 142258, 76
1208, 142202, 76
1209, 142340, 76
1210, 142460, 76
1211, 142585, 76
1212, 142577, 76
1213, 142508, 76
1214, 142500, 76
1215, 142434, 76
1216, 142381, 76
1217, 142547, 76
1218, 142453, 76
1219, 142358, 76
1220, 142337, 76
1221, 142368, 76
1222, 142384, 76
1223, 142487, 76
1224, 142544, 76
1225, 142525, 76
1226, 142718, 76
1227, 142947, 76
1228, 142826, 76
1229, 142940, 76
1230, 142944, 76
1231, 142994, 76
1232, 143107, 76
1233, 143273, 76
1234, 143403, 76
1235, 143490, 76
1236, 143599, 76
1237, 143674, 76
1238, 143676, 76
1239, 143628, 76
1240, 143985, 76
1241, 144154, 76
1242, 144277, 76
1243, 144460, 76
1244, 144478, 76
1245, 144705, 76
1246, 144762, 76
1247, 144901, 76
1248, 144917, 76
1249, 145060, 76
1250, 145142, 76
1251, 145329, 76
1252, 145286, 76
1253, 145445, 76
1254, 145436, 76
1255, 145653, 76
1256, 145749, 76
1257, 145872, 76
1258, 145936, 76
1259, 146044, 76
1260, 146260, 76
1261, 146206, 76
1262, 146319, 76
1263, 146277, 76
1264, 146216, 76
1265, 146016, 76
1266, 145692, 76
1267, 145261, 76
1268, 144921, 76
1269, 144505, 76
1270, 144049, 76
1271, 143385, 76
1272, 142830, 76
1273, 142347, 76
1274, 141811, 76
1275, 141425, 76
1276, 141005, 76
1277, 140668, 76
1278, 140497, 76
1279, 140203, 76
1280, 139961, 76
1281, 139775, 76
1282, 139444, 76
1283, 139454, 76
1284, 139179, 76
1285, 139403, 76
1286, 139249, 76
1287, 139319, 76
1288, 139247, 76
1289, 138999, 76
1290, 138960, 76
1291, 139072, 76
1292, 138806, 76
1293, 139063, 76
1294, 138796, 76
1295, 138532, 76
1296, 138516, 76
1297, 138319, 76
1298, 138079, 76
1299, 137946, 76
1300, 137825, 76
1301, 137704, 76
1302, 137711, 76
1303, 137680, 76
1304, 137345, 76
1305, 137216, 76
1306, 137325, 76
1307, 137317, 76
1308, 137224, 76
1309, 137269, 76
1310, 137390, 76
1311, 137116, 76
1312, 137253, 76
1313, 137310, 76
1314, 137282, 76
1315, 137565, 76
1316, 137435, 76
1317, 137522, 76
1318, 137588, 76
1319, 137599, 76
1320, 137538, 76
1321, 137697, 76
1322, 137836, 76
1323, 137883, 76
1324, 137913, 76
1325, 138064, 76
1326, 138121, 76
1327, 138135, 76
1328, 138179, 76
1329, 138245, 76
1330, 138365, 76
1331, 138326, 76
1332, 138333, 76
1333, 138376, 76
1334, 138439, 76
1335, 138464, 76
1336, 138605, 76
1337, 138604, 76
1338, 138674, 76
1339, 138771, 76
1340, 138857, 76
1341, 138853, 76
1342, 139065, 76
1343, 139012, 76
1344, 138949, 76
1345, 138907, 76
1346, 138844, 76
1347, 138548, 76
1348, 138262, 76
1349, 137808, 76
1350, 137304, 76
1351, 136728, 76
1352, 136584, 76
1353, 135806, 76
1354, 135243, 76
1355, 134740, 76
1356, 134321, 76
1357, 134168, 76
1358, 133743, 76
1359, 133418, 76
1360, 133190, 76
1361, 132823, 76
1362, 132590, 76
1363, 132336, 76
1364, 132352, 76
1365, 132208, 76
1366, 132234, 76
1367, 132338, 76
1368, 132137, 76
1369, 131984, 76
1370, 132231, 76
1371, 131986, 76
1372, 131974, 76
1373, 132167, 76
1374, 132211, 76
1375, 132291, 76
1376, 131894, 76
1377, 131937, 76
1378, 131822, 76
1379, 131642, 76
1380, 131375, 76
1381, 131523, 76
1382, 131480, 76
1383, 131323, 76
1384, 131145, 76
1385, 131160, 76
1386, 131131, 76
1387, 131047, 76
1388, 130834, 76
1389, 130872, 76
1390, 130911, 76
1391, 131001, 76
1392, 131168, 76
1393, 131018, 76
1394, 131185, 76
1395, 131208, 76
1396, 131181, 76
1397, 131345, 76
1398, 131422, 76
1399, 131646, 76
1400, 132042, 76
1401, 131972, 76
1402, 131972, 76
1403, 131953, 76
1404, 132174, 76
1405, 132277, 76
1406, 132273, 76
1407, 132172, 76
1408, 132644, 76
1409, 132654, 76
1410, 132672, 76
1411, 132694, 76
1412, 132976, 76
1413, 132912, 76
1414, 133135, 76
1415, 133354, 76
1416, 133261, 76
1417, 133479, 76
1418, 133437, 76
1419, 133647, 76
1420, 133755, 76
1421, 133985, 76
1422, 134067, 76
1423, 134416, 76
1424, 134245, 76
1425, 134597, 76
1426, 134591, 76
1427, 134756, 76
1428, 134688, 76
1429, 134542, 76
1430, 134423, 76
1431, 134047, 76
1432, 133467, 76
1433, 132937, 76
1434, 132503, 76
1435, 131715, 76
1436, 131281, 76
1437, 130515, 76
1438, 130016, 76
1439, 129581, 76
1440, 129138, 76
1441, 128761, 76
1442, 128248, 76
1443, 127970, 76
1444, 127787, 76
1445, 127624, 76
1446, 127412, 76
1447, 127233, 76
1448, 126959, 76
1449, 126764, 76
1450, 126966, 75
1451, 126803, 75
1452, 126709, 75
1453, 126777, 75
1454, 126548, 75
1455, 126570, 75
1456, 126614, 75
1457, 126615, 75
1458, 126412, 75
1459, 126410, 75
1460, 126110, 75
1461, 125885, 75
1462, 125831, 75
1463, 125349, 75
1464, 125112, 75
1465, 125173, 75
1466, 124950, 75
1467, 124897, 75
1468, 124719, 75
1469, 124453, 75
1470, 124262, 75
1471, 124237, 75
1472, 124288, 75
1473, 124154, 75
1474, 124352, 75
1475, 124269, 75
1476, 124127, 75
1477, 124267, 75
1478, 124213, 75
1479, 124438, 75
1480, 124382, 75
1481, 124593, 75
1482, 124618, 75
1483, 124756, 75
1484, 124504, 75
1485, 124762, 75
1486, 124741, 75
1487, 124864, 75
1488, 124714, 75
1489, 124680, 75
1490, 125007, 75
1491, 125093, 75
1492, 125138, 75
1493, 124961, 75
1494, 125050, 75
1495, 125180, 75
1496, 125220, 75
1497, 125419, 75
1498, 125665, 75
1499, 125873, 75
1500, 126001, 75
1501, 125950, 75
1502, 125902, 75
1503, 126053, 75
1504, 126070, 75
1505, 126345, 75
1506, 126480, 75
1507, 126671, 75
1508, 126959, 75
1509, 127191, 75
1510, 127068, 75
1511, 127009, 75
1512, 126935, 75
1513, 126874, 75
1514, 126514, 75
1515, 126250, 75
1516, 125915, 75
1517, 125360, 75
1518, 124564, 75
1519, 124213, 75
1520, 123357, 75
1521, 122806, 75
1522, 122235, 75
1523, 121747, 75
1524, 121432, 75
1525, 120826, 75
1526, 120691, 75
1527, 120248, 75
1528, 119926, 75
1529, 119899, 75
1530, 119717, 75
1531, 119658, 75
1532, 119563, 75
1533, 119309, 75
1534, 119159, 75
1535, 118963, 75
1536, 118972, 75
1537, 118997, 75
1538, 118842, 75
1539, 118850, 75
1540, 118923, 75
1541, 118785, 75
1542, 118733, 75
1543, 118448, 75
1544, 118328, 75
1545, 117852, 75
1546, 117852, 75
1547, 117820, 75
1548, 117644, 75
1549, 117320, 75
1550, 117233, 75
1551, 117069, 75
1552, 116829, 75
1553, 116750, 75
1554, 116555, 75
1555, 116578, 75
1556, 116444, 75
1557, 116569, 75
1558, 116832, 75
1559, 116777, 75
1560, 116879, 75
1561, 117083, 75
1562, 117097, 75
1563, 117167, 75
1564, 117395, 75
1565, 117409, 75
1566, 117570, 75
1567, 117593, 75
1568, 117971, 75
1569, 117734, 75
1570, 117579, 75
1571, 117834, 75
1572, 118005, 75
1573, 118141, 75
1574, 118318, 75
1575, 118295, 75
1576, 118334, 75
1577, 118362, 75
1578, 118633, 75
1579, 118540, 75
1580, 118879, 75
1581, 118993, 75
1582, 118862, 75
1583, 119047, 75
1584, 119317, 75
1585, 119659, 75
1586, 119568, 75
1587, 119698, 75
1588, 119888, 75
1589, 120018, 75
1590, 120215, 75
1591, 120295, 75
1592, 120537, 75
1593, 120671, 75
1594, 120755, 75
1595, 120673, 75
1596, 120284, 75
1597, 120094, 75
1598, 119621, 75
1599, 118942, 75
1600, 118418, 75
1601, 117797, 75
1602, 117161, 75
1603, 116505, 75
1604, 115870, 75
1605, 115023, 75
1606, 114625, 75
1607, 114079, 75
1608, 113751, 75
1609, 113392, 75
1610, 113014, 75
1611, 112719, 75
1612, 112439, 75
1613, 112225, 75
1614, 112297, 75
1615, 112061, 75
1616, 112206, 75
1617, 112055, 75
1618, 112048, 75
1619, 112008, 75
1620, 112038, 75
1621, 112097, 75
1622, 111856, 75
1623, 111875, 75
1624, 111762, 75
1625, 111432, 75
1626, 111222, 75
1627, 110924, 75
1628, 110585, 75
1629, 110525, 75
1630, 110219, 75
1631, 109967, 75
1632, 109517, 75
1633, 109681, 75
1634, 109399, 75
1635, 109180, 75
1636, 108931, 75
1637, 108797, 75
1638, 108773, 75
1639, 108669, 75
1640, 108737, 75
1641, 108610, 75
1642, 108588, 75
1643, 108783, 75
1644, 109005, 75
1645, 109154, 75
1646, 109061, 75
1647, 109087, 75
1648, 109235, 75
1649, 109248, 75
1650, 109336, 75
1651, 109416, 75
1652, 109606, 75
1653, 109793, 75
1654, 109799, 75
1655, 109906, 75
1656, 110016, 75
1657, 110208, 75
1658, 110320, 75
1659, 110355, 75
1660, 110587, 75
1661, 110758, 75
1662, 110775, 75
1663, 110902, 75
1664, 110994, 75
1665, 111150, 75
1666, 111328, 75
1667, 111738, 75
1668, 111630, 75
1669, 111610, 75
1670, 111728, 75
1671, 111746, 75
1672, 112157, 75
1673, 112434, 75
1674, 112526, 75
1675, 112584, 75
1676, 112946, 75
1677, 113040, 75
1678, 112917, 75
1679, 112425, 75
1680, 112239, 75
1681, 111834, 75
1682, 111315, 75
1683, 110669, 75
1684, 109872, 75
1685, 109137, 75
1686, 108534, 75
1687, 108039, 75
1688, 107511, 75
1689, 106839, 75
1690, 106521, 75
1691, 105971, 75
1692, 105570, 75
1693, 105363, 75
1694, 105095, 75
1695, 104809, 75
1696, 104625, 75
1697, 104659, 75
1698, 104720, 75
1699, 104693, 75
1700, 104603, 73
1701, 104646, 73
1702, 104484, 73
1703, 104403, 73
1704, 104310, 73
1705, 104272, 73
1706, 104358, 73
1707, 104045, 73
1708, 103664, 73
1709, 103483, 73
1710, 103395, 73
1711, 103306, 73
1712, 102875, 73
1713, 102613, 73
1714, 102316, 73
1715, 102449, 73
1716, 102223, 73
1717, 102001, 73
1718, 101650, 73
1719, 101640, 73
1720, 101710, 73
1721, 101635, 73
1722, 101502, 73
1723, 101500, 73
1724, 101505, 73
1725, 101615, 73
1726, 101635, 73
1727, 102016, 73
1728, 101933, 73
1729, 101853, 73
1730, 101933, 73
1731, 102035, 73
1732, 102191, 73
1733, 102284, 73
1734, 102155, 73
1735, 102314, 73
1736, 102572, 73
1737, 102601, 73
1738, 102703, 73
1739, 102777, 73
1740, 102942, 73
1741, 103090, 73
1742, 103132, 73
1743, 103140, 73
1744, 103431, 73
1745, 103410, 73
1746, 103641, 73
1747, 103645, 73
1748, 103808, 73
1749, 104017, 73
1750, 104184, 73
1751, 104450, 73
1752, 104509, 73
1753, 104689, 73
1754, 104750, 73
1755, 104807, 73
1756, 105031, 73
1757, 105191, 73
1758, 105087, 73
1759, 105215, 73
1760, 105103, 73
1761, 104813, 73
1762, 104471, 73
1763, 103763, 73
1764, 103168, 73
1765, 102556, 73
1766, 101695, 73
1767, 101073, 73
1768, 100431, 73
1769, 99785, 73
1770, 99209, 73
1771, 98712, 73
1772, 98406, 73
1773, 97988, 73
1774, 97698, 73
1775, 97503, 73
1776, 97157, 73
1777, 97011, 73
1778, 97006, 73
1779, 96821, 73
1780, 96815, 73
1781, 96725, 73
1782, 96624, 73
1783, 96751, 73
1784, 96519, 73
1785, 96634, 73
1786, 96592, 73
1787, 96738, 73
1788, 96621, 73
1789, 96624, 73
1790, 96679, 73
1791, 96628, 73
1792, 96643, 73
1793, 96831, 73
1794, 96785, 73
1795, 96954, 73
1796, 96950, 73
1797, 96775, 73
1798, 96841, 73
1799, 96813, 73
1800, 96960, 73
1801, 97156, 73
1802, 96931, 73
1803, 97020, 73
1804, 97225, 73
1805, 97347, 73
1806, 97638, 73
1807, 97846, 73
1808, 98101, 73
1809, 98457, 73
1810, 99032, 73
1811, 99680, 73
1812, 100364, 73
1813, 100978, 73
1814, 101612, 73
1815, 102047, 73
1816, 102306, 73
1817, 102886, 73
1818, 103323, 73
1819, 103658, 73
1820, 104137, 73
1821, 104351, 73
1822, 104138, 73
1823, 103769, 73
1824, 103428, 73
1825, 103106, 73
1826, 102808, 73
1827, 102392, 73
1828, 102114, 73
1829, 101827, 73
1830, 101201, 73
1831, 100883, 73
1832, 100676, 73
1833, 100401, 73
1834, 100212, 73
1835, 99986, 73
1836, 99891, 73
1837, 100055, 73
1838, 100120, 73
1839, 100182, 73
1840, 100268, 73
1841, 100526, 73
1842, 100499, 73
1843, 100609, 73
1844, 100513, 73
1845, 100162, 73
1846, 99576, 73
1847, 98832, 73
1848, 98025, 73
1849, 97075, 73
1850, 96058, 73
1851, 94991, 73
1852, 94006, 73
1853, 93110, 73
1854, 92266, 73
1855, 91451, 73
1856, 90696, 73
1857, 90135, 73
1858, 89668, 73
1859, 89237, 73
1860, 88856, 73
1861, 88653, 73
1862, 88230, 73
1863, 88103, 73
1864, 87724, 73
1865, 87665, 73
1866, 87435, 73
1867, 87616, 73
1868, 87835, 73
1869, 88228, 73
1870, 88431, 73
1871, 88734, 73
1872, 88882, 73
1873, 89086, 73
1874, 89318, 73
1875, 89615, 73
1876, 89652, 73
1877, 89568, 73
1878, 89489, 73
1879, 89589, 73
1880, 89527, 73
1881, 89410, 73
1882, 89463, 73
1883, 89511, 73
1884, 89698, 73
1885, 89708, 73
1886, 89731, 73
1887, 90012, 73
1888, 90211, 73
1889, 90689, 73
1890, 91072, 73
1891, 91455, 73
1892, 91948, 73
1893, 92283, 73
1894, 92691, 73
1895, 93209, 73
1896, 93267, 73
1897, 93835, 73
1898, 93924, 73
1899, 94409, 73
1900, 94973, 73
1901, 95478, 73
1902, 96009, 73
1903, 96367, 73
1904, 96670, 73
1905, 96941, 73
1906, 97109, 73
1907, 97305, 73
1908, 97657, 73
1909, 97713, 73
1910, 98090, 73
1911, 98627, 73
1912, 98657, 73
1913, 98880, 73
1914, 99172, 73
1915, 99315, 73
1916, 99491, 73
1917, 99579, 73
1918, 99877, 73
1919, 99966, 73
1920, 99885, 73
1921, 99656, 73
1922, 99688, 73
1923, 99471, 73
1924, 99329, 73
1925, 99056, 73
1926, 98712, 73
1927, 98036, 73
1928, 97442, 73
1929, 96884, 73
1930, 96274, 73
1931, 95414, 73
1932, 94875, 73
1933, 94095, 73
1934, 93578, 73
1935, 92862, 73
1936, 92483, 73
1937, 92284, 73
1938, 92079, 73
1939, 91802, 73
1940, 91846, 73
1941, 92120, 73
1942, 92252, 73
1943, 92378, 73
1944, 92573, 73
1945, 92800, 73
1946, 92898, 73
1947, 92977, 73
1948, 93286, 73
1949, 93579, 73
1950, 93713, 72
1951, 93913, 72
1952, 93881, 72
1953, 94098, 72
1954, 94477, 72
1955, 94589, 72
1956, 94798, 72
1957, 94901, 72
1958, 94462, 72
1959, 94517, 72
1960, 94737, 72
1961, 94516, 72
1962, 94410, 72
1963, 94288, 72
1964, 94117, 72
1965, 94073, 72
1966, 94009, 72
1967, 94043, 72
1968, 94041, 72
1969, 94152, 72
1970, 94304, 72
1971, 94275, 72
1972, 94245, 72
1973, 94267, 72
1974, 94192, 72
1975, 94223, 72
1976, 94210, 72
1977, 93921, 72
1978, 93731, 72
1979, 93530, 72
1980, 93437, 72
1981, 93140, 72
1982, 93003, 72
1983, 92938, 72
1984, 93128, 72
1985, 93154, 72
1986, 93348, 72
1987, 93115, 72
1988, 93212, 72
1989, 93399, 72
1990, 93414, 72
1991, 93847, 72
1992, 94156, 72
1993, 94398, 72
1994, 94891, 72
1995, 94799, 72
1996, 95068, 72
1997, 95449, 72
1998, 95302, 72
1999, 95315, 72
2000, 95187, 72
2001, 95292, 72
2002, 95338, 72
2003, 95066, 72
2004, 94938, 72
2005, 95045, 72
2006, 94966, 72
2007, 94787, 72
2008, 94630, 72
2009, 94482, 72
2010, 94289, 72
2011, 94004, 72
2012, 93371, 72
2013, 92662, 72
2014, 91745, 72
2015, 90927, 72
2016, 90091, 72
2017, 89113, 72
2018, 88179, 72
2019, 87458, 72
2020, 86701, 72
2021, 85930, 72
2022, 85109, 72
2023, 84542, 72
2024, 83703, 72
2025, 83028, 72
2026, 82294, 72
2027, 81438, 72
2028, 80687, 72
2029, 80100, 72
2030, 79488, 72
2031, 78914, 72
2032, 78434, 72
2033, 78119, 72
2034, 78066, 72
2035, 77815, 72
2036, 77886, 72
2037, 77771, 72
2038, 77725, 72
2039, 77722, 72
2040, 77830, 72
2041, 77975, 72
2042, 77940, 72
2043, 78180, 72
2044, 78414, 72
2045, 78495, 72
2046, 78698, 72
2047, 78736, 72
2048, 78730, 72
2049, 78669, 72
2050, 78678, 72
2051, 78880, 72
2052, 78897, 72
2053, 79049, 72
2054, 79254, 72
2055, 79491, 72
2056, 79601, 72
2057, 79852, 72
2058, 80099, 72
2059, 80457, 72
2060, 80476, 72
2061, 80826, 72
2062, 81093, 72
2063, 81643, 72
2064, 82154, 72
2065, 82636, 72
2066, 83054, 72
2067, 83327, 72
2068, 83814, 72
2069, 84326, 72
2070, 84739, 72
2071, 85016, 72
2072, 85275, 72
2073, 85574, 72
2074, 85814, 72
2075, 86243, 72
2076, 86404, 72
2077, 86579, 72
2078, 86649, 72
2079, 86478, 72
2080, 86665, 72
2081, 86602, 72
2082, 86671, 72
2083, 86534, 72
2084, 86453, 72
2085, 86407, 72
2086, 86579, 72
2087, 86290, 72
2088, 86017, 72
2089, 85975, 72
2090, 85742, 72
2091, 85356, 72
2092, 84969, 72
2093, 84464, 72
2094, 83794, 72
2095, 83236, 72
2096, 82474, 72
2097, 81562, 72
2098, 80918, 72
2099, 80273, 72
2100, 79266, 72
2101, 78654, 72
2102, 78192, 72
2103, 77812, 72
2104, 77299, 72
2105, 77253, 72
2106, 76994, 72
2107, 76926, 72
2108, 76541, 72
2109, 76216, 72
2110, 76319, 72
2111, 76023, 72
2112, 75815, 72
2113, 75802, 72
2114, 75845, 72
2115, 75554, 72
2116, 75220, 72
2117, 75210, 72
2118, 75159, 72
2119, 74823, 72
2120, 74742, 72
2121, 74634, 72
2122, 74436, 72
2123, 74208, 72
2124, 74145, 72
2125, 73745, 72
2126, 73554, 72
2127, 73363, 72
2128, 73125, 72
2129, 73136, 72
2130, 73058, 72
2131, 72931, 72
2132, 72992, 72
2133, 73315, 72
2134, 73305, 72
2135, 73268, 72
2136, 73569, 72
2137, 73785, 72
2138, 73819, 72
2139, 74157, 72
2140, 74394, 72
2141, 74872, 72
2142, 74920, 72
2143, 75089, 72
2144, 75458, 72
2145, 75687, 72
2146, 76311, 72
2147, 76403, 72
2148, 76709, 72
2149, 76709, 72
2150, 76867, 72
2151, 77178, 72
2152, 77473, 72
2153, 77794, 72
2154, 77890, 72
2155, 78241, 72
2156, 78565, 72
2157, 79028, 72
2158, 79188, 72
2159, 79658, 72
2160, 80233, 72
2161, 80574, 72
2162, 80859, 72
2163, 81383, 72
2164, 81958, 72
2165, 82462, 72
2166, 82944, 72
2167, 83358, 72
2168, 83508, 72
2169, 83909, 72
2170, 84264, 72
2171, 83942, 72
2172, 83759, 72
2173, 83243, 72
2174, 82729, 72
2175, 82172, 72
2176, 81745, 72
2177, 81156, 72
2178, 80649, 72
2179, 79985, 72
2180, 79845, 72
2181, 79459, 72
2182, 79000, 72
2183, 79104, 72
2184, 78882, 72
2185, 79151, 72
2186, 79025, 72
2187, 79283, 72
2188, 79525, 72
2189, 79922, 72
2190, 79991, 72
2191, 80395, 72
2192, 80688, 72
2193, 81143, 72
2194, 81577, 72
2195, 82063, 72
2196, 82226, 72
2197, 82569, 72
2198, 82649, 72
2199, 82622, 72
2200, 82832, 72
2201, 82693, 72
2202, 82686, 72
2203, 82616, 72
2204, 82494, 72
2205, 82570, 72
2206, 82359, 72
2207, 82403, 72
2208, 82472, 72
2209, 82649, 72
2210, 82473, 72
2211, 82534, 72
2212, 82882, 72
2213, 83175, 72
2214, 83357, 72
2215, 83541, 72
2216, 84062, 72
2217, 84210, 72
2218, 84628, 72
2219, 84926, 72
2220, 85302, 72
2221, 85649, 72
2222, 85720, 72
2223, 86077, 72
2224, 86055, 72
2225, 86125, 72
2226, 86050, 72
2227, 86073, 72
2228, 86142, 72
2229, 86376, 72
2230, 86133, 72
2231, 86230, 72
2232, 86665, 72
2233, 86843, 72
2234, 87014, 72
2235, 87352, 72
2236, 87577, 72
2237, 87915, 72
2238, 88336, 72
2239, 88669, 72
2240, 89037, 72
2241, 89363, 72
2242, 89627, 72
2243, 89904, 72
2244, 89744, 72
2245, 89665, 72
2246, 89435, 72
2247, 88968, 72
2248, 88444, 72
2249, 87949, 72
2250, 87481, 72
2251, 86876, 72
2252, 86220, 72
2253, 85668, 72
2254, 85179, 72
2255, 84712, 72
2256, 84015, 72
2257, 83713, 72
2258, 83291, 72
2259, 82918, 72
2260, 82731, 72
2261, 82598, 72
2262, 82488, 72
2263, 82220, 72
2264, 82332, 72
2265, 82428, 72
2266, 82474, 72
2267, 82448, 72
2268, 82540, 72
2269, 82463, 72
2270, 82764, 72
2271, 82559, 72
2272, 82542, 72
2273, 82613, 72
2274, 82658, 72
2275, 82742, 72
2276, 82912, 72
2277, 82547, 72
2278, 82566, 72
2279, 82534, 72
2280, 82522, 72
2281, 82299, 72
2282, 82250, 72
2283, 82276, 72
2284, 82273, 72
2285, 82520, 72
2286, 82913, 72
2287, 83214, 72
2288, 83498, 72
2289, 83829, 72
2290, 84203, 72
2291, 84576, 72
2292, 84697, 72
2293, 85183, 72
2294, 85490, 72
2295, 85807, 72
2296, 86224, 72
2297, 86402, 72
2298, 86532, 72
2299, 87099, 72
2300, 87099, 72
2301, 87638, 72
2302, 87870, 72
2303, 88235, 72
2304, 88475, 72
2305, 88626, 72
2306, 88874, 72
2307, 89080, 72
2308, 89376, 72
2309, 89723, 72
2310, 89969, 72
2311, 90109, 72
2312, 90259, 72
2313, 90215, 72
2314, 90168, 72
2315, 89877, 72
2316, 89349, 72
2317, 88701, 72
2318, 88287, 72
2319, 87600, 72
2320, 87039, 72
2321, 86675, 72
2322, 86165, 72
2323, 85553, 72
2324, 85288, 72
2325, 84979, 72
2326, 84531, 72
2327, 84259, 72
2328, 83936, 72
2329, 84121, 72
2330, 84071, 72
2331, 84127, 72
2332, 84031, 72
2333, 83875, 72
2334, 83985, 72
2335, 83927, 72
2336, 84140, 72
2337, 84239, 72
2338, 84354, 72
2339, 84350, 72
2340, 84443, 72
2341, 84424, 72
2342, 84292, 72
2343, 84518, 72
2344, 84419, 72
2345, 84492, 72
2346, 84507, 72
2347, 84183, 72
2348, 84146, 72
2349, 83995, 72
2350, 83962, 72
2351, 83841, 72
2352, 83937, 72
2353, 84024, 72
2354, 83945, 72
2355, 83989, 72
2356, 83828, 72
2357, 83848, 72
2358, 84025, 72
2359, 83989, 72
2360, 83926, 72
2361, 84068, 72
2362, 84270, 72
2363, 84559, 72
2364, 84839, 72
2365, 84993, 72
2366, 85065, 72
2367, 85375, 72
2368, 85541, 72
2369, 85588, 72
2370, 85666, 72
2371, 86071, 72
2372, 86273, 72
2373, 86337, 72
2374, 86595, 72
2375, 86795, 72
2376, 87593, 72
2377, 87477, 72
2378, 87335, 72
2379, 87617, 72
2380, 87206, 72
2381, 87120, 72
2382, 86599, 72
2383, 86252, 72
2384, 85853, 72
2385, 85230, 72
2386, 84705, 72
2387, 84054, 72
2388, 83706, 72
2389, 83211, 72
2390, 82623, 72
2391, 82170, 72
2392, 81823, 72
2393, 81494, 72
2394, 81337, 72
2395, 81032, 72
2396, 80775, 72
2397, 80764, 72
2398, 80586, 72
2399, 80598, 72
2400, 80353, 72
2401, 80438, 72
2402, 80576, 72
2403, 80692, 72
2404, 80783, 72
2405, 80895, 72
2406, 81213, 72
2407, 81509, 72
2408, 81518, 72
2409, 81740, 72
2410, 81763, 72
2411, 81980, 72
2412, 81826, 72
2413, 81736, 72
2414, 81694, 72
2415, 81651, 72
2416, 81698, 72
2417, 81785, 72
2418, 81545, 72
2419, 81592, 72
2420, 81978, 72
2421, 81782, 72
2422, 81921, 72
2423, 81940, 72
2424, 82115, 72
2425, 82256, 74
2426, 82741, 74
2427, 82741, 74
2428, 82900, 74
2429, 83016, 74
2430, 83436, 74
2431, 83559, 74
2432, 83896, 74
2433, 84177, 74
2434, 84409, 74
2435, 84738, 74
2436, 85056, 74
2437, 85306, 74
2438, 85832, 74
2439, 85878, 74
2440, 86199, 74
2441, 86505, 74
2442, 86531, 74
2443, 87033, 74
2444, 87334, 74
2445, 87598, 74
2446, 87743, 74
2447, 88037, 74
2448, 88179, 74
2449, 88302, 74
2450, 88443, 74
2451, 88346, 74
2452, 88159, 74
2453, 87730, 74
2454, 87364, 74
2455, 86831, 74
2456, 86442, 74
2457, 85755, 74
2458, 85261, 74
2459, 84831, 74
2460, 84371, 74
2461, 84107, 74
2462, 83641, 74
2463, 83362, 74
2464, 83234, 74
2465, 83059, 74
2466, 83069, 74
2467, 82992, 74
2468, 82826, 74
2469, 82966, 74
2470, 83086, 74
2471, 83210, 74
2472, 83259, 74
2473, 83355, 74
2474, 83642, 74
2475, 83554, 74
2476, 83904, 74
2477, 84082, 74
2478, 84195, 74
2479, 84358, 74
2480, 84338, 74
2481, 84659, 74
2482, 84737, 74
2483, 84772, 74
2484, 85021, 74
2485, 85204, 74
2486, 85273, 74
2487, 85468, 74
2488, 85529, 74
2489, 85545, 74
2490, 85766, 74
2491, 85890, 74
2492, 86275, 74
2493, 86711, 74
2494, 87033, 74
2495, 87063, 74
2496, 87377, 74
2497, 87666, 74
2498, 87918, 74
2499, 88136, 74
2500, 88485, 74
2501, 88868, 74
2502, 88928, 74
2503, 89218, 74
2504, 89539, 74
2505, 89860, 74
2506, 90350, 74
2507, 90311, 74
2508, 90599, 74
2509, 90953, 74
2510, 91140, 74
2511, 91309, 74
2512, 91622, 74
2513, 91915, 74
2514, 91986, 74
2515, 92231, 74
2516, 92615, 74
2517, 92947, 74
2518, 93091, 74
2519, 93366, 74
2520, 93570, 74
2521, 93643, 74
2522, 93875, 74
2523, 93563, 74
2524, 93347, 74
2525, 93104, 74
2526, 92561, 74
2527, 92040, 74
2528, 91740, 74
2529, 91357, 74
2530, 90692, 74
2531, 90015, 74
2532, 89212, 74
2533, 88918, 74
2534, 88637, 74
2535, 88375, 74
2536, 88208, 74
2537, 87874, 74
2538, 87750, 74
2539, 87583, 74
2540, 87546, 74
2541, 87364, 74
2542, 87442, 74
2543, 87550, 74
2544, 87436, 74
2545, 87527, 74
2546, 87612, 74
2547, 87705, 74
2548, 87819, 74
2549, 87853, 74
2550, 88066, 74
2551, 87910, 74
2552, 88062, 74
2553, 88166, 74
2554, 88188, 74
2555, 88047, 74
2556, 88007, 74
2557, 87974, 74
2558, 87872, 74
2559, 87826, 74
2560, 87759, 74
2561, 87784, 74
2562, 87906, 74
2563, 87954, 74
2564, 87900, 74
2565, 87868, 74
2566, 87949, 74
2567, 87910, 74
2568, 88237, 74
2569, 88257, 74
2570, 88373, 74
2571, 88436, 74
2572, 88702, 74
2573, 88883, 74
2574, 88979, 74
2575, 89043, 74
2576, 89376, 74
2577, 89614, 74
2578, 90147, 74
2579, 90147, 74
2580, 90298, 74
2581, 90355, 74
2582, 90586, 74
2583, 90915, 74
2584, 91162, 74
2585, 91382, 74
2586, 91603, 74
2587, 91949, 74
2588, 91890, 74
2589, 92149, 74
2590, 92340, 74
2591, 92638, 74
2592, 92917, 74
2593, 93039, 74
2594, 93331, 74
2595, 93451, 74
2596, 93664, 74
2597, 93984, 74
2598, 94228, 74
2599, 94140, 74
2600, 93803, 74
2601, 93645, 74
2602, 93459, 74
2603, 93194, 74
2604, 92680, 74
2605, 92362, 74
2606, 91616, 74
2607, 91199, 74
2608, 90689, 74
2609, 90160, 74
2610, 89755, 74
2611, 89386, 74
2612, 89044, 74
2613, 88939, 74
2614, 88580, 74
2615, 88430, 74
2616, 88451, 74
2617, 88439, 74
2618, 88169, 74
2619, 88243, 74
2620, 88450, 74
2621, 88633, 74
2622, 88528, 74
2623, 88552, 74
2624, 88646, 74
2625, 89010, 78
2626, 88981, 78
2627, 89064, 78
2628, 88939, 78
2629, 89229, 78
2630, 89102, 78
2631, 89145, 78
2632, 89196, 78
2633, 89059, 78
2634, 89031, 78
2635, 88982, 78
2636, 88681, 78
2637, 88818, 78
2638, 88632, 78
2639, 88766, 78
2640, 88987, 78
2641, 88816, 78
2642, 88892, 78
2643, 89169, 78
2644, 89276, 78
2645, 89394, 78
2646, 89465, 78
2647, 89697, 78
2648, 89724, 78
2649, 90188, 78
2650, 90159, 78
2651, 90387, 78
2652, 90847, 78
2653, 90860, 78
2654, 91242, 78
2655, 91243, 78
2656, 91709, 78
2657, 91709, 78
2658, 91965, 78
2659, 92228, 78
2660, 92391, 78
2661, 92767, 78
2662, 93029, 78
2663, 93308, 78
2664, 93568, 78
2665, 93860, 78
2666, 93925, 78
2667, 94308, 78
2668, 94404, 78
2669, 94689, 78
2670, 95028, 78
2671, 95379, 78
2672, 95464, 78
2673, 95732, 78
2674, 96074, 78
2675, 96282, 78
2676, 96616, 78
2677, 96736, 78
2678, 97018, 78
2679, 97309, 78
2680, 97558, 78
2681, 97859, 78
2682, 98155, 78
2683, 98354, 78
2684, 98684, 78
2685, 98528, 78
2686, 98410, 78
2687, 98231, 78
2688, 97909, 78
2689, 97624, 78
2690, 97147, 78
2691, 96698, 78
2692, 96126, 78
2693, 95606, 78
2694, 95300, 78
2695, 95165, 78
2696, 94872, 78
2697, 94719, 78
2698, 94309, 78
2699, 94224, 78
2700, 94101, 78
2701, 94126, 78
2702, 94010, 78
2703, 94055, 78
2704, 94087, 78
2705, 94035, 78
2706, 94357, 78
2707, 94254, 78
2708, 94384, 78
2709, 94705, 78
2710, 94812, 78
2711, 94949, 78
2712, 95104, 78
2713, 95327, 78
2714, 95256, 78
2715, 95344, 78
2716, 95449, 78
2717, 95519, 78
2718, 95528, 78
2719, 95542, 78
2720, 95598, 78
2721, 95614, 78
2722, 95694, 78
2723, 95827, 78
2724, 96045, 78
2725, 95892, 78
2726, 96115, 78
2727, 96268, 78
2728, 96479, 78
2729, 96673, 78
2730, 96584, 78
2731, 96648, 78
2732, 96967, 78
2733, 97247, 78
2734, 97397, 78
2735, 97852, 78
2736, 98014, 78
2737, 98387, 78
2738, 98736, 78
2739, 98931, 78
2740, 99210, 78
2741, 99392, 78
2742, 99886, 78
2743, 100248, 78
2744, 100393, 78
2745, 100665, 78
2746, 100862, 78
2747, 101233, 78
2748, 101244, 78
2749, 101647, 78
2750, 101868, 78
2751, 102140, 78
2752, 102348, 78
2753, 102498, 78
2754, 102749, 78
2755, 103093, 78
2756, 103379, 78
2757, 103460, 78
2758, 103773, 78
2759, 104067, 78
2760, 104203, 78
2761, 104515, 78
2762, 104722, 78
2763, 105044, 78
2764, 105178, 78
2765, 105570, 78
2766, 105865, 78
2767, 105982, 78
2768, 106336, 78
2769, 106662, 78
2770, 106895, 78
2771, 107073, 78
2772, 107111, 78
2773, 107002, 78
2774, 106710, 78
2775, 106426, 78
2776, 106112, 78
2777, 105798, 78
2778, 105441, 78
2779, 105189, 78
2780, 104290, 78
2781, 104178, 78
2782, 103877, 78
2783, 103581, 78
2784, 103483, 78
2785, 103322, 78
2786, 103257, 78
2787, 103062, 78
2788, 103137, 78
2789, 102967, 78
2790, 103044, 78
2791, 103038, 78
2792, 103110, 78
2793, 103123, 78
2794, 103427, 78
2795, 103536, 78
2796, 103542, 78
2797, 103740, 78
2798, 103903, 78
2799, 104068, 78
2800, 104014, 78
2801, 104086, 78
2802, 104131, 78
2803, 104064, 78
2804, 104033, 78
2805, 104096, 78
2806, 104074, 78
2807, 104209, 78
2808, 103981, 78
2809, 104113, 78
2810, 104242, 78
2811, 104376, 78
2812, 104397, 78
2813, 104447, 78
2814, 104357, 78
2815, 104443, 78
2816, 104681, 78
2817, 104986, 78
2818, 104964, 78
2819, 105006, 78
2820, 105336, 78
2821, 105310, 78
2822, 105727, 78
2823, 105726, 78
2824, 106039, 78
2825, 106334, 82
2826, 106715, 82
2827, 106920, 82
2828, 107102, 82
2829, 107248, 82
2830, 107519, 82
2831, 107603, 82
2832, 107993, 82
2833, 108054, 82
2834, 108232, 82
2835, 108380, 82
2836, 108844, 82
2837, 108887, 82
2838, 109034, 82
2839, 109242, 82
2840, 109267, 82
2841, 109458, 82
2842, 109758, 82
2843, 110045, 82
2844, 110125, 82
2845, 110292, 82
2846, 110465, 82
2847, 110580, 82
2848, 110874, 82
2849, 111186, 82
2850, 111398, 82
2851, 111565, 82
2852, 111793, 82
2853, 112187, 82
2854, 112448, 82
2855, 112934, 82
2856, 113263, 82
2857, 113468, 82
2858, 113990, 82
2859, 114205, 82
2860, 114636, 82
2861, 114656, 82
2862, 114759, 82
2863, 114658, 82
2864, 114562, 82
2865, 114290, 82
2866, 113815, 82
2867, 113588, 82
2868, 113231, 82
2869, 112939, 82
2870, 112495, 82
2871, 112048, 82
2872, 111732, 82
2873, 111484, 82
2874, 111318, 82
2875, 111136, 82
2876, 111101, 82
2877, 111029, 82
2878, 111117, 82
2879, 111101, 82
2880, 111292, 82
2881, 111238, 82
2882, 111317, 82
2883, 111341, 82
2884, 111469, 82
2885, 111717, 82
2886, 111722, 82
2887, 111797, 82
2888, 112006, 82
2889, 111960, 82
2890, 112268, 82
2891, 112271, 82
2892, 112399, 82
2893, 112605, 82
2894, 112580, 82
2895, 112627, 82
2896, 112901, 82
2897, 112835, 82
2898, 112711, 82
2899, 112628, 82
2900, 112496, 82
2901, 112714, 82
2902, 112741, 82
2903, 112747, 82
2904, 112738, 82
2905, 112763, 82
2906, 112763, 82
2907, 113165, 82
2908, 113061, 82
2909, 113349, 82
2910, 113559, 82
2911, 113734, 82
2912, 113828, 82
2913, 114204, 82
2914, 114411, 82
2915, 114680, 82
2916, 114851, 82
2917, 115194, 82
2918, 115296, 82
2919, 115723, 82
2920, 115944, 82
2921, 116208, 82
2922, 116468, 82
2923, 116756, 82
2924, 117168, 82
2925, 117386, 82
2926, 117538, 82
2927, 117767, 82
2928, 117995, 82
2929, 118244, 82
2930, 118594, 82
2931, 118814, 82
2932, 118948, 82
2933, 119031, 82
2934, 119467, 82
2935, 119662, 82
2936, 120049, 82
2937, 120262, 82
2938, 120491, 82
2939, 120713, 82
2940, 121080, 82
2941, 121289, 82
2942, 121745, 82
2943, 122123, 82
2944, 122215, 82
2945, 122655, 82
2946, 122927, 82
2947, 123058, 82
2948, 123363, 82
2949, 123405, 82
2950, 123771, 82
2951, 124007, 82
2952, 124237, 82
2953, 124504, 82
2954, 124715, 82
2955, 124976, 82
2956, 124930, 82
2957, 124776, 82
2958, 124550, 82
2959, 124469, 82
2960, 124099, 82
2961, 123648, 82
2962, 123347, 82
2963, 122985, 82
2964, 122656, 82
2965, 122530, 82
2966, 122322, 82
2967, 122111, 82
2968, 122086, 82
2969, 122080, 82
2970, 122202, 82
2971, 122243, 82
2972, 122339, 82
2973, 122483, 82
2974, 122419, 82
2975, 122623, 82
2976, 122683, 82
2977, 123036, 82
2978, 123188, 82
2979, 123372, 82
2980, 123792, 82
2981, 123680, 82
2982, 123764, 82
2983, 123883, 82
2984, 123908, 82
2985, 124166, 82
2986, 124035, 82
2987, 124132, 82
2988, 124012, 82
2989, 123948, 82
2990, 123824, 82
2991, 123878, 82
2992, 123816, 82
2993, 123775, 82
2994, 123731, 82
2995, 123762, 82
2996, 123869, 82
2997, 123770, 82
2998, 123726, 82
2999, 123816, 82
3000, 123789, 82
3001, 123893, 82
3002, 124136, 82
3003, 124186, 82
3004, 124177, 82
3005, 124387, 82
3006, 124580, 82
3007, 124487, 82
3008, 124668, 82
3009, 124966, 82
3010, 124992, 82
3011, 125145, 82
3012, 125371, 82
3013, 125548, 82
3014, 125667, 82
3015, 125603, 82
3016, 125607, 82
3017, 125763, 82
3018, 125963, 82
3019, 126019, 82
3020, 125979, 82
3021, 126026, 82
3022, 126418, 82
3023, 126415, 82
3024, 126585, 82
3025, 126684, 77
3026, 126882, 77
3027, 126902, 77
3028, 127141, 77
3029, 127043, 77
3030, 127147, 77
3031, 127169, 77
3032, 127460, 77
3033, 127487, 77
3034, 127528, 77
3035, 127708, 77
3036, 127704, 77
3037, 127735, 77
3038, 127896, 77
3039, 128004, 77
3040, 128170, 77
3041, 128381, 77
3042, 128321, 77
3043, 128602, 77
3044, 128514, 77
3045, 128757, 77
3046, 128479, 77
3047, 128132, 77
3048, 127655, 77
3049, 127208, 77
3050, 126665, 77
3051, 126074, 77
3052, 125169, 77
3053, 124571, 77
3054, 123805, 77
3055, 123147, 77
3056, 122502, 77
3057, 122017, 77
3058, 121488, 77
3059, 121146, 77
3060, 120802, 77
3061, 120310, 77
3062, 119956, 77
3063, 119746, 77
3064, 119483, 77
3065, 119256, 77
3066, 119138, 77
3067, 119134, 77
3068, 119047, 77
3069, 118720, 77
3070, 118827, 77
3071, 118786, 77
3072, 118954, 77
3073, 118752, 77
3074, 118675, 77
3075, 118581, 77
3076, 118412, 77
3077, 118249, 77
3078, 118074, 77
3079, 117880, 77
3080, 117540, 77
3081, 117639, 77
3082, 117219, 77
3083, 117038, 77
3084, 116893, 77
3085, 116700, 77
3086, 116604, 77
3087, 116369, 77
3088, 116131, 77
3089, 116144, 77
3090, 116111, 77
3091, 116058, 77
3092, 116042, 77
3093, 116123, 77
3094, 116076, 77
3095, 116057, 77
3096, 116271, 77
3097, 116307, 77
3098, 116257, 77
3099, 116460, 77
3100, 116487, 77
3101, 116530, 77
3102, 116483, 77
3103, 116503, 77
3104, 116766, 77
3105, 116496, 77
3106, 116625, 77
3107, 116726, 77
3108, 116801, 77
3109, 116963, 77
3110, 116954, 77
3111, 117060, 77
3112, 116889, 77
3113, 116819, 77
3114, 117079, 77
3115, 117243, 77
3116, 117231, 77
3117, 117495, 77
3118, 117658, 77
3119, 117593, 77
3120, 117690, 77
3121, 117871, 77
3122, 117870, 77
3123, 118091, 77
3124, 118150, 77
3125, 118278, 77
3126, 118284, 77
3127, 118414, 77
3128, 118685, 77
3129, 118796, 77
3130, 118940, 77
3131, 118818, 77
3132, 119130, 77
3133, 119264, 77
3134, 119320, 77
3135, 119609, 77
3136, 119673, 77
3137, 119596, 77
3138, 119358, 77
3139, 118864, 77
3140, 118471, 77
3141, 117947, 77
3142, 117078, 77
3143, 116733, 77
3144, 116075, 77
3145, 115297, 77
3146, 114627, 77
3147, 113990, 77
3148, 113401, 77
3149, 113103, 77
3150, 112460, 77
3151, 112392, 77
3152, 111989, 77
3153, 111702, 77
3154, 111502, 77
3155, 111548, 77
3156, 111077, 77
3157, 110862, 77
3158, 110862, 77
3159, 110872, 77
3160, 110886, 77
3161, 110740, 77
3162, 110626, 77
3163, 110743, 77
3164, 110865, 77
3165, 110516, 77
3166, 110279, 77
3167, 110354, 77
3168, 110116, 77
3169, 109865, 77
3170, 109834, 77
3171, 109692, 77
3172, 109420, 77
3173, 109253, 77
3174, 109138, 77
3175, 108976, 77
3176, 108792, 77
3177, 108604, 77
3178, 108631, 77
3179, 108610, 77
3180, 108548, 77
3181, 108624, 77
3182, 108600, 77
3183, 108500, 77
3184, 108560, 77
3185, 108665, 77
3186, 108782, 77
3187, 108895, 77
3188, 108758, 77
3189, 108948, 77
3190, 108966, 77
3191, 109210, 77
3192, 109162, 77
3193, 109473, 77
3194, 109634, 77
3195, 109677, 77
3196, 109709, 77
3197, 110006, 77
3198, 110134, 77
3199, 110218, 77
3200, 110282, 77
3201, 110266, 77
3202, 110515, 77
3203, 110756, 77
3204, 111090, 77
3205, 111166, 77
3206, 111221, 77
3207, 111320, 77
3208, 111372, 77
3209, 111697, 77
3210, 111733, 77
3211, 111941, 77
3212, 112050, 77
3213, 112195, 77
3214, 112260, 77
3215, 112220, 77
3216, 112644, 77
3217, 112743, 77
3218, 112787, 77
3219, 112999, 77
3220, 113235, 77
3221, 113522, 77
3222, 113613, 77
3223, 113734, 77
3224, 113745, 77
3225, 113768, 70
3226, 113977, 70
3227, 113805, 70
3228, 113607, 70
3229, 113008, 70
3230, 112763, 70
3231, 112292, 70
3232, 111631, 70
3233, 110965, 70
3234, 110240, 70
3235, 109648, 70
3236, 108942, 70
3237, 108532, 70
3238, 107951, 70
3239, 107362, 70
3240, 107030, 70
3241, 106738, 70
3242, 106391, 70
3243, 106083, 70
3244, 106016, 70
3245, 105681, 70
3246, 105609, 70
3247, 105393, 70
3248, 105218, 70
3249, 105154, 70
3250, 105063, 70
3251, 104992, 70
3252, 104861, 70
3253, 104951, 70
3254, 104953, 70
3255, 104871, 70
3256, 105129, 70
3257, 105118, 70
3258, 105055, 70
3259, 105171, 70
3260, 105317, 70
3261, 105443, 70
3262, 105542, 70
3263, 105814, 70
3264, 105973, 70
3265, 106183, 70
3266, 106508, 70
3267, 106575, 70
3268, 106638, 70
3269, 106920, 70
3270, 107080, 70
3271, 107039, 70
3272, 107497, 70
3273, 107505, 70
3274, 107336, 70
3275, 107681, 70
3276, 107998, 70
3277, 108003, 70
3278, 108410, 70
3279, 108467, 70
3280, 108791, 70
3281, 108674, 70
3282, 109219, 70
3283, 109382, 70
3284, 109675, 70
3285, 109814, 70
3286, 110225, 70
3287, 110429, 70
3288, 110581, 70
3289, 111048, 70
3290, 111485, 70
3291, 111578, 70
3292, 111798, 70
3293, 112171, 70
3294, 112173, 70
3295, 112446, 70
3296, 112850, 70
3297, 113062, 70
3298, 113175, 70
3299, 113451, 70
3300, 113647, 70
3301, 114123, 70
3302, 114248, 70
3303, 114627, 70
3304, 114843, 70
3305, 115057, 70
3306, 115498, 70
3307, 115643, 70
3308, 115790, 70
3309, 116166, 70
3310, 116429, 70
3311, 116722, 70
3312, 116593, 70
3313, 116513, 70
3314, 116054, 70
3315, 115850, 70
3316, 115506, 70
3317, 115095, 70
3318, 114478, 70
3319, 113993, 70
3320, 113563, 70
3321, 113021, 70
3322, 112609, 70
3323, 112166, 70
3324, 112011, 70
3325, 111731, 70
3326, 111636, 70
3327, 111444, 70
3328, 111455, 70
3329, 111486, 70
3330, 111367, 70
3331, 111450, 70
3332, 111700, 70
3333, 111852, 70
3334, 111860, 70
3335, 111890, 70
3336, 112166, 70
3337, 112173, 70
3338, 112409, 70
3339, 112665, 70
3340, 112895, 70
3341, 112799, 70
3342, 112698, 70
3343, 112808, 70
3344, 112998, 70
3345, 113074, 70
3346, 113362, 70
3347, 113540, 70
3348, 113128, 70
3349, 112842, 70
3350, 112997, 70
3351, 113005, 70
3352, 113008, 70
3353, 113056, 70
3354, 113103, 70
3355, 113143, 70
3356, 112938, 70
3357, 113099, 70
3358, 113208, 70
3359, 113224, 70
3360, 113330, 70
3361, 113473, 70
3362, 113719, 70
3363, 113668, 70
3364, 113772, 70
3365, 113944, 70
3366, 114155, 70
3367, 114279, 70
3368, 114476, 70
3369, 114578, 70
3370, 114632, 70
3371, 114839, 70
3372, 114957, 70
3373, 114957, 70
3374, 114748, 70
3375, 114894, 70
3376, 114824, 70
3377, 114721, 70
3378, 114971, 70
3379, 115055, 70
3380, 115272, 70
3381, 115318, 70
3382, 115364, 70
3383, 115511, 70
3384, 115593, 70
3385, 115837, 70
3386, 116011, 70
3387, 116164, 70
3388, 116189, 70
3389, 116510, 70
3390, 116579, 70
3391, 116628, 70
3392, 117059, 70
3393, 117055, 70
3394, 116823, 70
3395, 116579, 70
3396, 116237, 70
3397, 115448, 70
3398, 114855, 70
3399, 114266, 70
3400, 113530, 70
3401, 112929, 70
3402, 112334, 70
3403, 111670, 70
3404, 110972, 70
3405, 110468, 70
3406, 109880, 70
3407, 109357, 70
3408, 109099, 70
3409, 108694, 70
3410, 108447, 70
3411, 108253, 70
3412, 108198, 70
3413, 107914, 70
3414, 107780, 70
3415, 107924, 70
3416, 107697, 70
3417, 107589, 70
3418, 107470, 70
3419, 107416, 70
3420, 107497, 70
3421, 107380, 70
3422, 107248, 70
3423, 107129, 70
3424, 106964, 70
3425, 106996, 66
3426, 106705, 66
3427, 106719, 66
3428, 106572, 66
3429, 106453, 66
3430, 106321, 66
3431, 106314, 66
3432, 106223, 66
3433, 106251, 66
3434, 106266, 66
3435, 106025, 66
3436, 106205, 66
3437, 106084, 66
3438, 106151, 66
3439, 106162, 66
3440, 106333, 66
3441, 106278, 66
3442, 106525, 66
3443, 106530, 66
3444, 106760, 66
3445, 106911, 66
3446, 106910, 66
3447, 107062, 66
3448, 106984, 66
3449, 107356, 66
3450, 107381, 66
3451, 107226, 66
3452, 107373, 66
3453, 107507, 66
3454, 107456, 66
3455, 107352, 66
3456, 107458, 66
3457, 107663, 66
3458, 107765, 66
3459, 107883, 66
3460, 107914, 66
3461, 107953, 66
3462, 107920, 66
3463, 107986, 66
3464, 108017, 66
3465, 108130, 66
3466, 108217, 66
3467, 108241, 66
3468, 108261, 66
3469, 108363, 66
3470, 108322, 66
3471, 108142, 66
3472, 108147, 66
3473, 107643, 66
3474, 107276, 66
3475, 106829, 66
3476, 106140, 66
3477, 105386, 66
3478, 104743, 66
3479, 104022, 66
3480, 103372, 66
3481, 102751, 66
3482, 102128, 66
3483, 101400, 66
3484, 100999, 66
3485, 100575, 66
3486, 100184, 66
3487, 99964, 66
3488, 99660, 66
3489, 99192, 66
3490, 98939, 66
3491, 98917, 66
3492, 98801, 66
3493, 98374, 66
3494, 98372, 66
3495, 98211, 66
3496, 98071, 66
3497, 97811, 66
3498, 97917, 66
3499, 97713, 66
3500, 97547, 66
3501, 97150, 66
3502, 96951, 66
3503, 96730, 66
3504, 96622, 66
3505, 96362, 66
3506, 96066, 66
3507, 95747, 66
3508, 95594, 66
3509, 95471, 66
3510, 95179, 66
3511, 94890, 66
3512, 94602, 66
3513, 94484, 66
3514, 94492, 66
3515, 94704, 66
3516, 94428, 66
3517, 94260, 66
3518, 94260, 66
3519, 94352, 66
3520, 94272, 66
3521, 94252, 66
3522, 94384, 66
3523, 94364, 66
3524, 94483, 66
3525, 94597, 66
3526, 94416, 66
3527, 94404, 66
3528, 94396, 66
3529, 94663, 66
3530, 94490, 66
3531, 94334, 66
3532, 94350, 66
3533, 94416, 66
3534, 94308, 66
3535, 94596, 66
3536, 94799, 66
3537, 94745, 66
3538, 94798, 66
3539, 94797, 66
3540, 95008, 66
3541, 95199, 66
3542, 95366, 66
3543, 95447, 66
3544, 95480, 66
3545, 95803, 66
3546, 95809, 66
3547, 95961, 66
3548, 96178, 66
3549, 96054, 66
3550, 96027, 66
3551, 95908, 66
3552, 95412, 66
3553, 94959, 66
3554, 94430, 66
3555, 93838, 66
3556, 93432, 66
3557, 92831, 66
3558, 92226, 66
3559, 91773, 66
3560, 91420, 66
3561, 91055, 66
3562, 90620, 66
3563, 90335, 66
3564, 90201, 66
3565, 90069, 66
3566, 89855, 66
3567, 89537, 66
3568, 89368, 66
3569, 89408, 66
3570, 89372, 66
3571, 89406, 66
3572, 89399, 66
3573, 89510, 66
3574, 89358, 66
3575, 89267, 66
3576, 89327, 66
3577, 89243, 66
3578, 89234, 66
3579, 88942, 66
3580, 88791, 66
3581, 88823, 66
3582, 88735, 66
3583, 88469, 66
3584, 88383, 66
3585, 88242, 66
3586, 87952, 66
3587, 87977, 66
3588, 87928, 66
3589, 87874, 66
3590, 88034, 66
3591, 87996, 66
3592, 87889, 66
3593, 88112, 66
3594, 88390, 66
3595, 88393, 66
3596, 88527, 66
3597, 88634, 66
3598, 88939, 66
3599, 88811, 66
3600, 89029, 66
3601, 89168, 66
3602, 89068, 66
3603, 89242, 66
3604, 89430, 66
3605, 89707, 66
3606, 89709, 66
3607, 90059, 66
3608, 90094, 66
3609, 90143, 66
3610, 90486, 66
3611, 90640, 66
3612, 90744, 66
3613, 90786, 66
3614, 91031, 66
3615, 91331, 66
3616, 91610, 66
3617, 91781, 66
3618, 91993, 66
3619, 92497, 66
3620, 92605, 66
3621, 92388, 66
3622, 92344, 66
3623, 92218, 66
3624, 92000, 66
3625, 91653, 66
3626, 91037, 66
3627, 90700, 66
3628, 90294, 66
3629, 89737, 66
3630, 89296, 66
3631, 89024, 66
3632, 88466, 66
3633, 88092, 66
3634, 87825, 66
3635, 87626, 66
3636, 87286, 66
3637, 87286, 66
3638, 87317, 66
3639, 87221, 66
3640, 87058, 66
3641, 86990, 66
3642, 86939, 66
3643, 86812, 66
3644, 87242, 66
3645, 87180, 66
3646, 87182, 66
3647, 87216, 66
3648, 87290, 66
3649, 87498, 66
3650, 87474, 68
3651, 87329, 68
3652, 87287, 68
3653, 87350, 68
3654, 87215, 68
3655, 87410, 68
3656, 87324, 68
3657, 87222, 68
3658, 87345, 68
3659, 87417, 68
3660, 87562, 68
3661, 87657, 68
3662, 87637, 68
3663, 87633, 68
3664, 87795, 68
3665, 87993, 68
3666, 88225, 68
3667, 88217, 68
3668, 88488, 68
3669, 88768, 68
3670, 89081, 68
3671, 89200, 68
3672, 89350, 68
3673, 89441, 68
3674, 89590, 68
3675, 89840, 68
3676, 90054, 68
3677, 90397, 68
3678, 90503, 68
3679, 90767, 68
3680, 90981, 68
3681, 91212, 68
3682, 91592, 68
3683, 91750, 68
3684, 91869, 68
3685, 92509, 68
3686, 92579, 68
3687, 92737, 68
3688, 93031, 68
3689, 93132, 68
3690, 93405, 68
3691, 93562, 68
3692, 93750, 68
3693, 93680, 68
3694, 93615, 68
3695, 93441, 68
3696, 93229, 68
3697, 93020, 68
3698, 92905, 68
3699, 92471, 68
3700, 92245, 68
3701, 91774, 68
3702, 91382, 68
3703, 91203, 68
3704, 90943, 68
3705, 90809, 68
3706, 90882, 68
3707, 90506, 68
3708, 90415, 68
3709, 90186, 68
3710, 90576, 68
3711, 90507, 68
3712, 90735, 68
3713, 90833, 68
3714, 90889, 68
3715, 91023, 68
3716, 91227, 68
3717, 91394, 68
3718, 91618, 68
3719, 91742, 68
3720, 91560, 68
3721, 91539, 68
3722, 91505, 68
3723, 91507, 68
3724, 91572, 68
3725, 91427, 68
3726, 91429, 68
3727, 91513, 68
3728, 91232, 68
3729, 91496, 68
3730, 91402, 68
3731, 91338, 68
3732, 91344, 68
3733, 91505, 68
3734, 91614, 68
3735, 91749, 68
3736, 91903, 68
3737, 92214, 68
3738, 92346, 68
3739, 92573, 68
3740, 92829, 68
3741, 93121, 68
3742, 93249, 68
3743, 93548, 68
3744, 93710, 68
3745, 94355, 68
3746, 94444, 68
3747, 94609, 68
3748, 94839, 68
3749, 94968, 68
3750, 95305, 68
3751, 95503, 68
3752, 95699, 68
3753, 95993, 68
3754, 96219, 68
3755, 96576, 68
3756, 96403, 68
3757, 96722, 68
3758, 97181, 68
3759, 97454, 68
3760, 97544, 68
3761, 97762, 68
3762, 97845, 68
3763, 98031, 68
3764, 98278, 68
3765, 98337, 68
3766, 98642, 68
3767, 98483, 68
3768, 98421, 68
3769, 98277, 68
3770, 98157, 68
3771, 97844, 68
3772, 97523, 68
3773, 97310, 68
3774, 97001, 68
3775, 96577, 68
3776, 96325, 68
3777, 95955, 68
3778, 95898, 68
3779, 95564, 68
3780, 95800, 68
3781, 95456, 68
3782, 95452, 68
3783, 95461, 68
3784, 95409, 68
3785, 95413, 68
3786, 95231, 68
3787, 95245, 68
3788, 95514, 68
3789, 95329, 68
3790, 95431, 68
3791, 95595, 68
3792, 95787, 68
3793, 95948, 68
3794, 95797, 68
3795, 96074, 68
3796, 96085, 68
3797, 96517, 68
3798, 96543, 68
3799, 96611, 68
3800, 96680, 68
3801, 96762, 68
3802, 96762, 68
3803, 97021, 68
3804, 96994, 68
3805, 96971, 68
3806, 97009, 68
3807, 97168, 68
3808, 97266, 68
3809, 97361, 68
3810, 97512, 68
3811, 97610, 68
3812, 97701, 68
3813, 97884, 68
3814, 97974, 68
3815, 98256, 68
3816, 98275, 68
3817, 98613, 68
3818, 98814, 68
3819, 99023, 68
3820, 99290, 68
3821, 99387, 68
3822, 99658, 68
3823, 99862, 68
3824, 100288, 68
3825, 100361, 74
3826, 100594, 74
3827, 100825, 74
3828, 101082, 74
3829, 101266, 74
3830, 101657, 74
3831, 101940, 74
3832, 102217, 74
3833, 102245, 74
3834, 102633, 74
3835, 102873, 74
3836, 103304, 74
3837, 103484, 74
3838, 103795, 74
3839, 103946, 74
3840, 104227, 74
3841, 104445, 74
3842, 104412, 74
3843, 104423, 74
3844, 104359, 74
3845, 104306, 74
3846, 104237, 74
3847, 103755, 74
3848, 103530, 74
3849, 103063, 74
3850, 102611, 74
3851, 102354, 74
3852, 102122, 74
3853, 101643, 74
3854, 101609, 74
3855, 101310, 74
3856, 101126, 74
3857, 100907, 74
3858, 100993, 74
3859, 100844, 74
3860, 100881, 74
3861, 100783, 74
3862, 100668, 74
3863, 100954, 74
3864, 100879, 74
3865, 100964, 74
3866, 100927, 74
3867, 101182, 74
3868, 101029, 74
3869, 101377, 74
3870, 101229, 74
3871, 101418, 74
3872, 101273, 74
3873, 101729, 74
3874, 101728, 74
3875, 101644, 74
3876, 101697, 74
3877, 101729, 74
3878, 101716, 74
3879, 101634, 74
3880, 101567, 74
3881, 101833, 74
3882, 101667, 74
3883, 101814, 74
3884, 101724, 74
3885, 101743, 74
3886, 101868, 74
3887, 101999, 74
3888, 102195, 74
3889, 102379, 74
3890, 102578, 74
3891, 102704, 74
3892, 102710, 74
3893, 102732, 74
3894, 102953, 74
3895, 103077, 74
3896, 103175, 74
3897, 103293, 74
3898, 103473, 74
3899, 103618, 74
3900, 103714, 74
3901, 103941, 74
3902, 103893, 74
3903, 104139, 74
3904, 104295, 74
3905, 104453, 74
3906, 104610, 74
3907, 104683, 74
3908, 105018, 74
3909, 105229, 74
3910, 105470, 74
3911, 105444, 74
3912, 105629, 74
3913, 105951, 74
3914, 106190, 74
3915, 106468, 74
3916, 106331, 74
3917, 106560, 74
3918, 106317, 74
3919, 106163, 74
3920, 106098, 74
3921, 105630, 74
3922, 105542, 74
3923, 105259, 74
3924, 105267, 74
3925, 104764, 74
3926, 104547, 74
3927, 104286, 74
3928, 104387, 74
3929, 104451, 74
3930, 104691, 74
3931, 105101, 74
3932, 105166, 74
3933, 105509, 74
3934, 105630, 74
3935, 105973, 74
3936, 106337, 74
3937, 106783, 74
3938, 107175, 74
3939, 107843, 74
3940, 108150, 74
3941, 108439, 74
3942, 108956, 74
3943, 109269, 74
3944, 109580, 74
3945, 109737, 74
3946, 109787, 74
3947, 109882, 74
3948, 109998, 74
3949, 109983, 74
3950, 110027, 74
3951, 110052, 74
3952, 110114, 74
3953, 110198, 74
3954, 110426, 74
3955, 110559, 74
3956, 110551, 74
3957, 110631, 74
3958, 110577, 74
3959, 110767, 74
3960, 110801, 74
3961, 110963, 74
3962, 111386, 74
3963, 111399, 74
3964, 111474, 74
3965, 111685, 74
3966, 111873, 74
3967, 112210, 74
3968, 112457, 74
3969, 112684, 74
3970, 112832, 74
3971, 113195, 74
3972, 113592, 74
3973, 113848, 74
3974, 114058, 74
3975, 114425, 74
3976, 114777, 74
3977, 115029, 74
3978, 115294, 74
3979, 115560, 74
3980, 116062, 74
3981, 116265, 74
3982, 116631, 74
3983, 117115, 74
3984, 117330, 74
3985, 117605, 74
3986, 117639, 74
3987, 117550, 74
3988, 117699, 74
3989, 117484, 74
3990, 117320, 74
3991, 116990, 74
3992, 116686, 74
3993, 116514, 74
3994, 115986, 74
3995, 115722, 74
3996, 115761, 74
3997, 115357, 74
3998, 115268, 74
3999, 114985, 74
4000, 114702, 74
4001, 114979, 74
4002, 115007, 74
4003, 115092, 74
4004, 115266, 74
4005, 115403, 74
4006, 115531, 74
4007, 115642, 74
4008, 115833, 74
4009, 115877, 74
4010, 116044, 74
4011, 116352, 74
4012, 116687, 74
4013, 117071, 74
4014, 116953, 74
4015, 117148, 74
4016, 117078, 74
4017, 117243, 74
4018, 117533, 74
4019, 117800, 74
4020, 117757, 74
4021, 117692, 74
4022, 117961, 74
4023, 118052, 74
4024, 118221, 74
4025, 118341, 78
4026, 118524, 78
4027, 118807, 78
4028, 118960, 78
4029, 119175, 78
4030, 119313, 78
4031, 119474, 78
4032, 119712, 78
4033, 119838, 78
4034, 120143, 78
4035, 120394, 78
4036, 120777, 78
4037, 120957, 78
4038, 121219, 78
4039, 121573, 78
4040, 121681, 78
4041, 122024, 78
4042, 122147, 78
4043, 122378, 78
4044, 122818, 78
4045, 122898, 78
4046, 122983, 78
4047, 123147, 78
4048, 123510, 78
4049, 123645, 78
4050, 123628, 78
4051, 123905, 78
4052, 124204, 78
4053, 124399, 78
4054, 124725, 78
4055, 124884, 78
4056, 125104, 78
4057, 125339, 78
4058, 125562, 78
4059, 125618, 78
4060, 125583, 78
4061, 125537, 78
4062, 125109, 78
4063, 124967, 78
4064, 124472, 78
4065, 123843, 78
4066, 123376, 78
4067, 122876, 78
4068, 122317, 78
4069, 121580, 78
4070, 121194, 78
4071, 120661, 78
4072, 120208, 78
4073, 119872, 78
4074, 119424, 78
4075, 119219, 78
4076, 118932, 78
4077, 118767, 78
4078, 118366, 78
4079, 118205, 78
4080, 117950, 78
4081, 117650, 78
4082, 117462, 78
4083, 117429, 78
4084, 117294, 78
4085, 117449, 78
4086, 117205, 78
4087, 117016, 78
4088, 116952, 78
4089, 116891, 78
4090, 116856, 78
4091, 116785, 78
4092, 116638, 78
4093, 116456, 78
4094, 116530, 78
4095, 116438, 78
4096, 116380, 78
4097, 116190, 78
4098, 116022, 78
4099, 115783, 78
4100, 115737, 78
4101, 115687, 78
4102, 115617, 78
4103, 115614, 78
4104, 115579, 78
4105, 115377, 78
4106, 115484, 78
4107, 115492, 78
4108, 115562, 78
4109, 115580, 78
4110, 115667, 78
4111, 115820, 78
4112, 115821, 78
4113, 115928, 78
4114, 115968, 78
4115, 115988, 78
4116, 116099, 78
4117, 115979, 78
4118, 115994, 78
4119, 116073, 78
4120, 116148, 78
4121, 116157, 78
4122, 116241, 78
4123, 116350, 78
4124, 116347, 78
4125, 116539, 78
4126, 116450, 78
4127, 116581, 78
4128, 116638, 78
4129, 116827, 78
4130, 116964, 78
4131, 116999, 78
4132, 117094, 78
4133, 116997, 78
4134, 116686, 78
4135, 116322, 78
4136, 116036, 78
4137, 115449, 78
4138, 114796, 78
4139, 114046, 78
4140, 113147, 78
4141, 112474, 78
4142, 111824, 78
4143, 110946, 78
4144, 110214, 78
4145, 109594, 78
4146, 109035, 78
4147, 108587, 78
4148, 108128, 78
4149, 107773, 78
4150, 107548, 78
4151, 107404, 78
4152, 106898, 78
4153, 106443, 78
4154, 106167, 78
4155, 105920, 78
4156, 105770, 78
4157, 105604, 78
4158, 105474, 78
4159, 105361, 78
4160, 105499, 78
4161, 105406, 78
4162, 105385, 78
4163, 105195, 78
4164, 105111, 78
4165, 104817, 78
4166, 104699, 78
4167, 104413, 78
4168, 104449, 78
4169, 104260, 78
4170, 104013, 78
4171, 103784, 78
4172, 103711, 78
4173, 103558, 78
4174, 103317, 78
4175, 103191, 78
4176, 103291, 78
4177, 103041, 78
4178, 103117, 78
4179, 103112, 78
4180, 103118, 78
4181, 103104, 78
4182, 103293, 78
4183, 103531, 78
4184, 103321, 78
4185, 103745, 78
4186, 103725, 78
4187, 103799, 78
4188, 104121, 78
4189, 104025, 78
4190, 104309, 78
4191, 104505, 78
4192, 104490, 78
4193, 104780, 78
4194, 104895, 78
4195, 105118, 78
4196, 105069, 78
4197, 105337, 78
4198, 105453, 78
4199, 105721, 78
4200, 105929, 78
4201, 105991, 78
4202, 106147, 78
4203, 106326, 78
4204, 106472, 78
4205, 106731, 78
4206, 106712, 78
4207, 106684, 78
4208, 106372, 78
4209, 105994, 78
4210, 105397, 78
4211, 104474, 78
4212, 103891, 78
4213, 103277, 78
4214, 102759, 78
4215, 101965, 78
4216, 101458, 78
4217, 100727, 78
4218, 100431, 78
4219, 99948, 78
4220, 99532, 78
4221, 99141, 78
4222, 98772, 78
4223, 98473, 78
4224, 98180, 78
4225, 98062, 80
4226, 97779, 80
4227, 97671, 80
4228, 97630, 80
4229, 97428, 80
4230, 97587, 80
4231, 97745, 80
4232, 97354, 80
4233, 97415, 80
4234, 97310, 80
4235, 97199, 80
4236, 97226, 80
4237, 97226, 80
4238, 97324, 80
4239, 97135, 80
4240, 96989, 80
4241, 97009, 80
4242, 96829, 80
4243, 97038, 80
4244, 96823, 80
4245, 96648, 80
4246, 96490, 80
4247, 96645, 80
4248, 96770, 80
4249, 96670, 80
4250, 96935, 80
4251, 97111, 80
4252, 97240, 80
4253, 97601, 80
4254, 97742, 80
4255, 98099, 80
4256, 98293, 80
4257, 98546, 80
4258, 98858, 80
4259, 98971, 80
4260, 99587, 80
4261, 99921, 80
4262, 100186, 80
4263, 100254, 80
4264, 100456, 80
4265, 100772, 80
4266, 100888, 80
4267, 101223, 80
4268, 101687, 80
4269, 101812, 80
4270, 101876, 80
4271, 102132, 80
4272, 102341, 80
4273, 102633, 80
4274, 102888, 80
4275, 103208, 80
4276, 103265, 80
4277, 103855, 80
4278, 104195, 80
4279, 104250, 80
4280, 104075, 80
4281, 103973, 80
4282, 103719, 80
4283, 103493, 80
4284, 102977, 80
4285, 102370, 80
4286, 101754, 80
4287, 101180, 80
4288, 100780, 80
4289, 100210, 80
4290, 99619, 80
4291, 99065, 80
4292, 98617, 80
4293, 98303, 80
4294, 97922, 80
4295, 97628, 80
4296, 97658, 80
4297, 97287, 80
4298, 97289, 80
4299, 97060, 80
4300, 97146, 80
4301, 97215, 80
4302, 97160, 80
4303, 97262, 80
4304, 97436, 80
4305, 97429, 80
4306, 97458, 80
4307, 97597, 80
4308, 97611, 80
4309, 97664, 80
4310, 97777, 80
4311, 97745, 80
4312, 97882, 80
4313, 97742, 80
4314, 97730, 80
4315, 97746, 80
4316, 97821, 80
4317, 97691, 80
4318, 97512, 80
4319, 97542, 80
4320, 97769, 80
4321, 97731, 80
4322, 97877, 80
4323, 98274, 80
4324, 98315, 80
4325, 98186, 80
4326, 98405, 80
4327, 98556, 80
4328, 98737, 80
4329, 99032, 80
4330, 99522, 80
4331, 99568, 80
4332, 99787, 80
4333, 100072, 80
4334, 100145, 80
4335, 100372, 80
4336, 100621, 80
4337, 101022, 80
4338, 101236, 80
4339, 101437, 80
4340, 101480, 80
4341, 101743, 80
4342, 102083, 80
4343, 102230, 80
4344, 102285, 80
4345, 102481, 80
4346, 102515, 80
4347, 102768, 80
4348, 103058, 80
4349, 103316, 80
4350, 103545, 80
4351, 103754, 80
4352, 104029, 80
4353, 104108, 80
4354, 104046, 80
4355, 104055, 80
4356, 103976, 80
4357, 103547, 80
4358, 103068, 80
4359, 102551, 80
4360, 101893, 80
4361, 101164, 80
4362, 100708, 80
4363, 100017, 80
4364, 99415, 80
4365, 99025, 80
4366, 98451, 80
4367, 98068, 80
4368, 97844, 80
4369, 97526, 80
4370, 97518, 80
4371, 97128, 80
4372, 96969, 80
4373, 96831, 80
4374, 96650, 80
4375, 96545, 80
4376, 96376, 80
4377, 96650, 80
4378, 96641, 80
4379, 96569, 80
4380, 96598, 80
4381, 96660, 80
4382, 96771, 80
4383, 96749, 80
4384, 96697, 80
4385, 96698, 80
4386, 96721, 80
4387, 96734, 80
4388, 96566, 80
4389, 96569, 80
4390, 96575, 80
4391, 96395, 80
4392, 96344, 80
4393, 96172, 80
4394, 96113, 80
4395, 96288, 80
4396, 96313, 80
4397, 96314, 80
4398, 96356, 80
4399, 96409, 80
4400, 96452, 80
4401, 96540, 80
4402, 96622, 80
4403, 96991, 80
4404, 97052, 80
4405, 96908, 80
4406, 96873, 80
4407, 97003, 80
4408, 97405, 80
4409, 97244, 80
4410, 97374, 80
4411, 97528, 80
4412, 97489, 80
4413, 97790, 80
4414, 97819, 80
4415, 97872, 80
4416, 97891, 80
4417, 97850, 80
4418, 98053, 80
4419, 98133, 80
4420, 98242, 80
4421, 98430, 80
4422, 98450, 80
4423, 98622, 80
4424, 98730, 80
4425, 98887, 81
4426, 98989, 81
4427, 99191, 81
4428, 99260, 81
4429, 99363, 81
4430, 99493, 81
4431, 99009, 81
4432, 98650, 81
4433, 98209, 81
4434, 97770, 81
4435, 97239, 81
4436, 96801, 81
4437, 96433, 81
4438, 96001, 81
4439, 95568, 81
4440, 95126, 81
4441, 94652, 81
4442, 94556, 81
4443, 94329, 81
4444, 93897, 81
4445, 93892, 81
4446, 93528, 81
4447, 93458, 81
4448, 93460, 81
4449, 93420, 81
4450, 93382, 81
4451, 93374, 81
4452, 93364, 81
4453, 93531, 81
4454, 93520, 81
4455, 93704, 81
4456, 93814, 81
4457, 93839, 81
4458, 93982, 81
4459, 93983, 81
4460, 94014, 81
4461, 94062, 81
4462, 93861, 81
4463, 93922, 81
4464, 93993, 81
4465, 94137, 81
4466, 94242, 81
4467, 94327, 81
4468, 94571, 81
4469, 94707, 81
4470, 94788, 81
4471, 94946, 81
4472, 95145, 81
4473, 95501, 81
4474, 95537, 81
4475, 95766, 81
4476, 96025, 81
4477, 96029, 81
4478, 96361, 81
4479, 96372, 81
4480, 96705, 81
4481, 97005, 81
4482, 97309, 81
4483, 97483, 81
4484, 97758, 81
4485, 97642, 81
4486, 98077, 81
4487, 98367, 81
4488, 98800, 81
4489, 98838, 81
4490, 99353, 81
4491, 99705, 81
4492, 100040, 81
4493, 100237, 81
4494, 100417, 81
4495, 100873, 81
4496, 101204, 81
4497, 101587, 81
4498, 101980, 81
4499, 102289, 81
4500, 102746, 81
4501, 103014, 81
4502, 103442, 81
4503, 103828, 81
4504, 104032, 81
4505, 103998, 81
4506, 103862, 81
4507, 103761, 81
4508, 103477, 81
4509, 103171, 81
4510, 102868, 81
4511, 102564, 81
4512, 102194, 81
4513, 101785, 81
4514, 101369, 81
4515, 101074, 81
4516, 100943, 81
4517, 100820, 81
4518, 100804, 81
4519, 100877, 81
4520, 100903, 81
4521, 100893, 81
4522, 101042, 81
4523, 101327, 81
4524, 101655, 81
4525, 101704, 81
4526, 102004, 81
4527, 102361, 81
4528, 102857, 81
4529, 103166, 81
4530, 103355, 81
4531, 103713, 81
4532, 103929, 81
4533, 104188, 81
4534, 104494, 81
4535, 104628, 81
4536, 104837, 81
4537, 104996, 81
4538, 105288, 81
4539, 105329, 81
4540, 105570, 81
4541, 105800, 81
4542, 105860, 81
4543, 106067, 81
4544, 106144, 81
4545, 106383, 81
4546, 106542, 81
4547, 106849, 81
4548, 107212, 81
4549, 107306, 81
4550, 107463, 81
4551, 107772, 81
4552, 107854, 81
4553, 108123, 81
4554, 108448, 81
4555, 108722, 81
4556, 108903, 81
4557, 109177, 81
4558, 109705, 81
4559, 109926, 81
4560, 110313, 81
4561, 110447, 81
4562, 110982, 81
4563, 111324, 81
4564, 111486, 81
4565, 111677, 81
4566, 112172, 81
4567, 112409, 81
4568, 112992, 81
4569, 113181, 81
4570, 113407, 81
4571, 113848, 81
4572, 114126, 81
4573, 114468, 81
4574, 114929, 81
4575, 115422, 81
4576, 115750, 81
4577, 116160, 81
4578, 116345, 81
4579, 116617, 81
4580, 116672, 81
4581, 116741, 81
4582, 116551, 81
4583, 116420, 81
4584, 116478, 81
4585, 116521, 81
4586, 116466, 81
4587, 116564, 81
4588, 116566, 81
4589, 116699, 81
4590, 116993, 81
4591, 117139, 81
4592, 117451, 81
4593, 117722, 81
4594, 117785, 81
4595, 118096, 81
4596, 118538, 81
4597, 118755, 81
4598, 119031, 81
4599, 119273, 81
4600, 119949, 81
4601, 120543, 81
4602, 120470, 81
4603, 120736, 81
4604, 121067, 81
4605, 121283, 81
4606, 121701, 81
4607, 121574, 81
4608, 121389, 81
4609, 121237, 81
4610, 121082, 81
4611, 121178, 81
4612, 120837, 81
4613, 120501, 81
4614, 120395, 81
4615, 120063, 81
4616, 120203, 81
4617, 120074, 81
4618, 120028, 81
4619, 119946, 81
4620, 119901, 81
4621, 119819, 81
4622, 119956, 81
4623, 119851, 81
4624, 119917, 81
4625, 120066, 81
4626, 120356, 81
4627, 120332, 81
4628, 120483, 81
4629, 120701, 81
4630, 120663, 81
4631, 120923, 81
4632, 121295, 81
4633, 121466, 81
4634, 121785, 81
4635, 122207, 81
4636, 122405, 81
4637, 122719, 81
4638, 122933, 81
4639, 123158, 81
4640, 123562, 81
4641, 123835, 81
4642, 124126, 81
4643, 124422, 81
4644, 124783, 81
4645, 124856, 81
4646, 125190, 81
4647, 125146, 81
4648, 125436, 81
4649, 125377, 81
4650, 125159, 81
4651, 125010, 81
4652, 124782, 81
4653, 124521, 81
4654, 124078, 81
4655, 123962, 81
4656, 123809, 81
4657, 123473, 81
4658, 123163, 81
4659, 122874, 81
4660, 122845, 81
4661, 122786, 81
4662, 122616, 81
4663, 122526, 81
4664, 122569, 81
4665, 122569, 81
4666, 122281, 81
4667, 122199, 81
4668, 122074, 81
4669, 121844, 81
4670, 121832, 81
4671, 121571, 81
4672, 121282, 81
4673, 120963, 81
4674, 120791, 81
4675, 120386, 81
4676, 120003, 81
4677, 119752, 81
4678, 119251, 81
4679, 118790, 81
4680, 118398, 81
4681, 117719, 81
4682, 117220, 81
4683, 116855, 81
4684, 116154, 81
4685, 115378, 81
4686, 115120, 81
4687, 114559, 81
4688, 114044, 81
4689, 113909, 81
4690, 113603, 81
4691, 113289, 81
4692, 112950, 81
4693, 112910, 81
4694, 113026, 81
4695, 112886, 81
4696, 113108, 81
4697, 113314, 81
4698, 113407, 81
4699, 113826, 81
4700, 114376, 81
4701, 114945, 81
4702, 115519, 81
4703, 115990, 81
4704, 116487, 81
4705, 116950, 81
4706, 117295, 81
4707, 117989, 81
4708, 118126, 81
4709, 118584, 81
4710, 118975, 81
4711, 119601, 81
4712, 119937, 81
4713, 120398, 81
4714, 121160, 81
4715, 122370, 81
4716, 122370, 81
4717, 122976, 81
4718, 123322, 81
4719, 123390, 81
4720, 123205, 81
4721, 123037, 81
4722, 122957, 81
4723, 122885, 81
4724, 122751, 81
4725, 122313, 81
4726, 122064, 81
4727, 121808, 81
4728, 121472, 81
4729, 121223, 81
4730, 121122, 81
4731, 120944, 81
4732, 120923, 81
4733, 120565, 81
4734, 120604, 81
4735, 120504, 81
4736, 120331, 81
4737, 120384, 81
4738, 120902, 81
4739, 120737, 81
4740, 120791, 81
4741, 120939, 81
4742, 120878, 81
4743, 121071, 81
4744, 121159, 81
4745, 121515, 81
4746, 121750, 81
4747, 121789, 81
4748, 121755, 81
4749, 121930, 81
4750, 121907, 81
4751, 121968, 81
4752, 122031, 81
4753, 122033, 81
4754, 122134, 81
4755, 122073, 81
4756, 122149, 81
4757, 122116, 81
4758, 122216, 81
4759, 122342, 81
4760, 122340, 81
4761, 122388, 81
4762, 122623, 81
4763, 122757, 81
4764, 122899, 81
4765, 123206, 81
4766, 123357, 81
4767, 123537, 81
4768, 123717, 81
4769, 123798, 81
4770, 123884, 81
4771, 124182, 81
4772, 124454, 81
4773, 124518, 81
4774, 124688, 81
4775, 124765, 81
4776, 124958, 81
4777, 125048, 81
4778, 125136, 81
4779, 125237, 81
4780, 125298, 81
4781, 125480, 81
4782, 125662, 81
4783, 125754, 81
4784, 125625, 81
4785, 125350, 81
4786, 125135, 81
4787, 124964, 81
4788, 124411, 81
4789, 123855, 81
4790, 123256, 81
4791, 122590, 81
4792, 121909, 81
4793, 121523, 81
4794, 120939, 81
4795, 120553, 81
4796, 119905, 81
4797, 119458, 81
4798, 119215, 81
4799, 118807, 81
4800, 118640, 81
4801, 118390, 81
4802, 118074, 81
4803, 118002, 81
4804, 117882, 81
4805, 117875, 81
4806, 117651, 81
4807, 117803, 81
4808, 117713, 81
4809, 117806, 81
4810, 117925, 81
4811, 117730, 81
4812, 117558, 81
4813, 117643, 81
4814, 117493, 81
4815, 117522, 81
4816, 117553, 81
4817, 117426, 81
4818, 117419, 81
4819, 117090, 81
4820, 116932, 81
4821, 116856, 81
4822, 116719, 81
4823, 116726, 81
4824, 116497, 81
4825, 116690, 81
4826, 116441, 81
4827, 116271, 81
4828, 116227, 81
4829, 116182, 81
4830, 116224, 81
4831, 116389, 81
4832, 116342, 81
4833, 116362, 81
4834, 116534, 81
4835, 116594, 81
4836, 116564, 81
4837, 116702, 81
4838, 116858, 81
4839, 117017, 81
4840, 116949, 81
4841, 117290, 81
4842, 117370, 81
4843, 117504, 81
4844, 117806, 81
4845, 117936, 81
4846, 118316, 81
4847, 118360, 81
4848, 118386, 81
4849, 118534, 81
4850, 118939, 81
4851, 118807, 81
4852, 118978, 81
4853, 118728, 81
4854, 118683, 81
4855, 118231, 81
4856, 117785, 81
4857, 117195, 81
4858, 116758, 81
4859, 116359, 81
4860, 115748, 81
4861, 115381, 81
4862, 114934, 81
4863, 114655, 81
4864, 114413, 81
4865, 113951, 81
4866, 113790, 81
4867, 113674, 81
4868, 113410, 81
4869, 113410, 81
4870, 113091, 81
4871, 113328, 81
4872, 113063, 81
4873, 113106, 81
4874, 113155, 81
4875, 113297, 81
4876, 113249, 81
4877, 113270, 81
4878, 113290, 81
4879, 113276, 81
4880, 113104, 81
4881, 113099, 81
4882, 112942, 81
4883, 113009, 81
4884, 112718, 81
4885, 112561, 81
4886, 112259, 81
4887, 112080, 81
4888, 111943, 81
4889, 111615, 81
4890, 111359, 81
4891, 111137, 81
4892, 110955, 81
4893, 110707, 81
4894, 110516, 81
4895, 110343, 81
4896, 110026, 81
4897, 110057, 81
4898, 110063, 81
4899, 110079, 81
4900, 109994, 81
4901, 110172, 81
4902, 110305, 81
4903, 110451, 81
4904, 110813, 81
4905, 110994, 81
4906, 111229, 81
4907, 111644, 81
4908, 112111, 81
4909, 112597, 81
4910, 113025, 81
4911, 113434, 81
4912, 113985, 81
4913, 114510, 81
4914, 114917, 81
4915, 115203, 81
4916, 115553, 81
4917, 115684, 81
4918, 115724, 81
4919, 115769, 81
4920, 115430, 81
4921, 115546, 81
4922, 115365, 81
4923, 115213, 81
4924, 115199, 81
4925, 115272, 81
4926, 115150, 81
4927, 115218, 81
4928, 115334, 81
4929, 115320, 81
4930, 115426, 81
4931, 115659, 81
4932, 115904, 81
4933, 116184, 81
4934, 116508, 81
4935, 116908, 81
4936, 117401, 81
4937, 117745, 81
4938, 118099, 81
4939, 118412, 81
4940, 118832, 81
4941, 119362, 81
4942, 119590, 81
4943, 119953, 81
4944, 120104, 81
4945, 120539, 81
4946, 120878, 81
4947, 121155, 81
4948, 121341, 81
4949, 121424, 81
4950, 121552, 81
4951, 121851, 81
4952, 122012, 81
4953, 122097, 81
4954, 122142, 81
4955, 122336, 81
4956, 122254, 81
4957, 122344, 81
4958, 122465, 81
4959, 122349, 81
4960, 122472, 81
4961, 122494, 81
4962, 122642, 81
4963, 122631, 81
4964, 122749, 81
4965, 122974, 81
4966, 122987, 81
4967, 123089, 81
4968, 123496, 81
4969, 123640, 81
4970, 123695, 81
4971, 123832, 81
4972, 124014, 81
4973, 124245, 81
4974, 124587, 81
4975, 124946, 81
4976, 125171, 81
4977, 125228, 81
4978, 125368, 81
4979, 125498, 81
4980, 125626, 81
4981, 125631, 81
4982, 125394, 81
4983, 125295, 81
4984, 124936, 81
4985, 124577, 81
4986, 124180, 81
4987, 123930, 81
4988, 123594, 81
4989, 123081, 81
4990, 122857, 81
4991, 122485, 81
4992, 122259, 81
4993, 121985, 81
4994, 121902, 81
4995, 121713, 81
4996, 121588, 81
4997, 121334, 81
4998, 121340, 81
4999, 121402, 81
5000, 121351, 81
5001, 121287, 81
5002, 121310, 81
5003, 121544, 81
5004, 121622, 81
5005, 121688, 81
5006, 121990, 81
5007, 121791, 81
5008, 121998, 81
5009, 122152, 81
5010, 122269, 81
5011, 122042, 81
5012, 122238, 81
5013, 122502, 81
5014, 122687, 81
5015, 122555, 81
5016, 122452, 81
5017, 122575, 81
5018, 122668, 81
5019, 122607, 81
5020, 122833, 81
5021, 122723, 81
5022, 122882, 81
5023, 123054, 81
5024, 123113, 81
5025, 123283, 82
5026, 123342, 82
5027, 123560, 82
5028, 123646, 82
5029, 123724, 82
5030, 124083, 82
5031, 124202, 82
5032, 124196, 82
5033, 124306, 82
5034, 124414, 82
5035, 124569, 82
5036, 124733, 82
5037, 124859, 82
5038, 124934, 82
5039, 125226, 82
5040, 125606, 82
5041, 125762, 82
5042, 125827, 82
5043, 125776, 82
5044, 126023, 82
5045, 125902, 82
5046, 125840, 82
5047, 125510, 82
5048, 125293, 82
5049, 125050, 82
5050, 124812, 82
5051, 124403, 82
5052, 124397, 82
5053, 124057, 82
5054, 123868, 82
5055, 123636, 82
5056, 123500, 82
5057, 123467, 82
5058, 123384, 82
5059, 123440, 82
5060, 123459, 82
5061, 124001, 82
5062, 124136, 82
5063, 124059, 82
5064, 124251, 82
5065, 124359, 82
5066, 124628, 82
5067, 124972, 82
5068, 125323, 82
5069, 125433, 82
5070, 125738, 82
5071, 125838, 82
5072, 125956, 82
5073, 126132, 82
5074, 126235, 82
5075, 126203, 82
5076, 126463, 82
5077, 126406, 82
5078, 126514, 82
5079, 126607, 82
5080, 126839, 82
5081, 127065, 82
5082, 127191, 82
5083, 127364, 82
5084, 127494, 82
5085, 127881, 82
5086, 128487, 82
5087, 128596, 82
5088, 128938, 82
5089, 129316, 82
5090, 129709, 82
5091, 130031, 82
5092, 130534, 82
5093, 130954, 82
5094, 131099, 82
5095, 131729, 82
5096, 132277, 82
5097, 132786, 82
5098, 133202, 82
5099, 133660, 82
5100, 134442, 82
5101, 135196, 82
5102, 136044, 82
5103, 136809, 82
5104, 137500, 82
5105, 138603, 82
5106, 139461, 82
5107, 140148, 82
5108, 140843, 82
5109, 141773, 82
5110, 142358, 82
5111, 143182, 82
5112, 143678, 82
5113, 144268, 82
5114, 144801, 82
5115, 144981, 82
5116, 145215, 82
5117, 145695, 82
5118, 145851, 82
5119, 146205, 82
5120, 146617, 82
5121, 146825, 82
5122, 147057, 82
5123, 147257, 82
5124, 147291, 82
5125, 147718, 82
5126, 147735, 82
5127, 148189, 82
5128, 148370, 82
5129, 148380, 82
5130, 148395, 82
5131, 148465, 82
5132, 148580, 82
5133, 148630, 82
5134, 148911, 82
5135, 149004, 82
5136, 149051, 82
5137, 149238, 82
5138, 149260, 82
5139, 149277, 82
5140, 149688, 82
5141, 149688, 82
5142, 149657, 82
5143, 149666, 82
5144, 149550, 82
5145, 149551, 82
5146, 149547, 82
5147, 149816, 82
5148, 149752, 82
5149, 149748, 82
5150, 149892, 82
5151, 150014, 82
5152, 150221, 82
5153, 150294, 82
5154, 150271, 82
5155, 150422, 82
5156, 150405, 82
5157, 150499, 82
5158, 150251, 82
5159, 150263, 82
5160, 150313, 82
5161, 150341, 82
5162, 150547, 82
5163, 150676, 82
5164, 150815, 82
5165, 150897, 82
5166, 150861, 82
5167, 150892, 82
5168, 151130, 82
5169, 151295, 82
5170, 151272, 82
5171, 151488, 82
5172, 151593, 82
5173, 151542, 82
5174, 151741, 82
5175, 151943, 82
5176, 152016, 82
5177, 152320, 82
5178, 152291, 82
5179, 152439, 82
5180, 152514, 82
5181, 152537, 82
5182, 152646, 82
5183, 152597, 82
5184, 152533, 82
5185, 152130, 82
5186, 151909, 82
5187, 151674, 82
5188, 151181, 82
5189, 151065, 82
5190, 150831, 82
5191, 150731, 82
5192, 150530, 82
5193, 150290, 82
5194, 150224, 82
5195, 150094, 82
5196, 149886, 82
5197, 149868, 82
5198, 150040, 82
5199, 149815, 82
5200, 149721, 82
5201, 149399, 82
5202, 148871, 82
5203, 148191, 82
5204, 147371, 82
5205, 146452, 82
5206, 145357, 82
5207, 144220, 82
5208, 143252, 82
5209, 142150, 82
5210, 141204, 82
5211, 140255, 82
5212, 139153, 82
5213, 138080, 82
5214, 137032, 82
5215, 135691, 82
5216, 134439, 82
5217, 133324, 82
5218, 132470, 82
5219, 132038, 82
5220, 131191, 82
5221, 130358, 82
5222, 130259, 82
5223, 130256, 82
5224, 130706, 82
5225, 131306, 82
5226, 131682, 82
5227, 132246, 82
5228, 132263, 82
5229, 132008, 82
5230, 131752, 82
5231, 131267, 82
5232, 130866, 82
5233, 129635, 82
5234, 128001, 82
5235, 125351, 82
5236, 120461, 82
5237, 114713, 82
5238, 109791, 82
5239, 104852, 82
5240, 99096, 82
5241, 92535, 82
5242, 85204, 82
5243, 77203, 82
5244, 69405, 82
5245, 60614, 82
5246, 53205, 82
5247, 44506, 82
5248, 33652, 82
5249, 18627, 82
5250, 9353, 82
5251, 2270, 82
5252, -2148, 82
5253, -4936, 82
5254, -6547, 82
5255, -7657, 82
5256, -7676, 82
5257, -7197, 82
5258, -6906, 82
5259, -5718, 82
5260, -4516, 82
5261, -4215, 82
5262, -3890, 82
5263, -3635, 82
5264, -3254, 82
5265, -2252, 82
5266, -1297, 82
5267, 159, 82
5268, 1621, 82
5269, 2908, 82
5270, 3804, 82
5271, 4417, 82
5272, 4613, 82
5273, 4391, 82
5274, 4536, 82
5275, 4638, 82
5276, 4729, 82
5277, 5224, 82
5278, 5365, 82
5279, 5609, 82
5280, 5563, 82
5281, 5307, 82
5282, 4930, 82
5283, 4455, 82
5284, 4090, 82
5285, 4198, 82
5286, 5325, 82
5287, 7750, 82
5288, 11889, 82
5289, 34853, 82
5290, 48156, 82
5291, 56862, 82
5292, 65650, 82
5293, 72877, 82
5294, 77997, 82
5295, 81891, 82
5296, 84924, 82
5297, 87028, 82
5298, 88448, 82
5299, 89119, 82
5300, 89254, 82
5301, 88808, 82
5302, 87786, 82
5303, 86403, 82
5304, 86031, 82
5305, 86242, 82
5306, 86975, 82
5307, 87628, 82
5308, 88522, 82
5309, 89085, 82
5310, 89198, 82
5311, 90116, 82
5312, 90823, 82
5313, 92747, 82
5314, 94409, 82
5315, 96530, 82
5316, 98505, 82
5317, 100464, 82
5318, 102145, 82
5319, 103884, 82
5320, 105507, 82
5321, 106942, 82
5322, 107959, 82
5323, 108753, 82
5324, 109703, 82
5325, 110473, 82
5326, 111541, 82
5327, 112477, 82
5328, 113582, 82
5329, 114721, 82
5330, 115657, 82
5331, 116656, 82
5332, 117813, 82
5333, 119015, 82
5334, 120312, 82
5335, 121220, 82
5336, 122107, 82
5337, 123329, 82
5338, 124371, 82
5339, 125581, 82
5340, 126642, 82
5341, 127553, 82
5342, 128859, 82
5343, 129620, 82
5344, 130804, 82
5345, 132001, 82
5346, 132789, 82
5347, 133775, 82
5348, 134493, 82
5349, 135287, 82
5350, 136317, 82
5351, 137010, 82
5352, 137360, 82
5353, 138198, 82
5354, 138736, 82
5355, 139442, 82
5356, 139809, 82
5357, 140303, 82
5358, 140676, 82
5359, 141132, 82
5360, 141687, 82
5361, 141878, 82
5362, 142181, 82
5363, 142659, 82
5364, 142919, 82
5365, 143036, 82
5366, 143451, 82
5367, 144011, 82
5368, 144372, 82
5369, 144757, 82
5370, 145151, 82
5371, 145405, 82
5372, 146046, 82
5373, 146314, 82
5374, 147149, 82
5375, 147178, 82
5376, 147460, 82
5377, 147731, 82
5378, 148145, 82
5379, 148611, 82
5380, 148978, 82
5381, 149343, 82
5382, 149679, 82
5383, 150195, 82
5384, 150567, 82
5385, 150948, 82
5386, 151231, 82
5387, 151695, 82
5388, 151937, 82
5389, 152384, 82
5390, 152722, 82
5391, 152900, 82
5392, 152898, 82
5393, 153137, 82
5394, 152805, 82
5395, 152685, 82
5396, 152369, 82
5397, 152136, 82
5398, 151975, 82
5399, 151820, 82
5400, 151558, 82
5401, 151278, 82
5402, 151068, 82
5403, 150849, 82
5404, 150820, 82
5405, 150876, 82
5406, 150910, 82
5407, 150865, 82
5408, 150971, 82
5409, 151028, 82
5410, 151136, 82
5411, 151326, 82
5412, 151482, 82
5413, 151619, 82
5414, 151884, 82
5415, 151987, 82
5416, 152213, 82
5417, 152240, 82
5418, 152295, 82
5419, 152217, 82
5420, 152266, 82
5421, 152210, 82
5422, 152097, 82
5423, 151912, 82
5424, 151861, 82
5425, 151659, 83
5426, 151561, 83
5427, 151410, 83
5428, 151428, 83
5429, 151426, 83
5430, 151256, 83
5431, 151092, 83
5432, 151042, 83
5433, 151154, 83
5434, 151028, 83
5435, 151117, 83
5436, 151197, 83
5437, 151280, 83
5438, 151420, 83
5439, 151732, 83
5440, 151771, 83
5441, 152133, 83
5442, 152239, 83
5443, 152440, 83
5444, 152910, 83
5445, 153170, 83
5446, 153377, 83
5447, 153657, 83
5448, 154118, 83
5449, 154217, 83
5450, 154386, 83
5451, 154452, 83
5452, 154765, 83
5453, 154937, 83
5454, 155227, 83
5455, 155131, 83
5456, 155046, 83
5457, 154936, 83
5458, 154681, 83
5459, 154202, 83
5460, 153667, 83
5461, 153535, 83
5462, 153055, 83
5463, 152584, 83
5464, 152143, 83
5465, 151643, 83
5466, 151291, 83
5467, 150884, 83
5468, 150458, 83
5469, 150136, 83
5470, 149899, 83
5471, 149653, 83
5472, 149280, 83
5473, 149143, 83
5474, 148735, 83
5475, 148526, 83
5476, 148441, 83
5477, 148388, 83
5478, 148390, 83
5479, 148272, 83
5480, 148192, 83
5481, 148108, 83
5482, 148329, 83
5483, 148334, 83
5484, 148314, 83
5485, 148312, 83
5486, 148334, 83
5487, 148196, 83
5488, 148258, 83
5489, 148290, 83
5490, 148163, 83
5491, 148353, 83
5492, 148219, 83
5493, 148361, 83
5494, 148240, 83
5495, 148189, 83
5496, 148293, 83
5497, 148402, 83
5498, 148756, 83
5499, 148833, 83
5500, 148899, 83
5501, 148984, 83
5502, 148919, 83
5503, 148888, 83
5504, 149003, 83
5505, 149231, 83
5506, 149431, 83
5507, 149470, 83
5508, 149443, 83
5509, 149521, 83
5510, 149516, 83
5511, 149248, 83
5512, 149232, 83
5513, 149117, 83
5514, 149340, 83
5515, 149238, 83
5516, 149300, 83
5517, 149002, 83
5518, 148912, 83
5519, 148991, 83
5520, 148824, 83
5521, 148522, 83
5522, 148317, 83
5523, 147956, 83
5524, 147641, 83
5525, 147179, 83
5526, 146654, 83
5527, 146231, 83
5528, 145737, 83
5529, 145243, 83
5530, 144815, 83
5531, 144183, 83
5532, 143981, 83
5533, 143679, 83
5534, 143328, 83
5535, 142783, 83
5536, 142572, 83
5537, 142516, 83
5538, 142117, 83
5539, 141808, 83
5540, 141563, 83
5541, 141309, 83
5542, 141163, 83
5543, 140863, 83
5544, 140675, 83
5545, 140489, 83
5546, 140381, 83
5547, 140163, 83
5548, 140054, 83
5549, 139924, 83
5550, 139782, 83
5551, 139517, 83
5552, 139431, 83
5553, 139367, 83
5554, 139239, 83
5555, 138946, 83
5556, 138828, 83
5557, 138748, 83
5558, 138731, 83
5559, 138503, 83
5560, 138616, 83
5561, 138361, 83
5562, 138370, 83
5563, 138346, 83
5564, 138135, 83
5565, 137962, 83
5566, 138011, 83
5567, 137942, 83
5568, 137690, 83
5569, 137738, 83
5570, 137711, 83
5571, 137797, 83
5572, 137910, 83
5573, 137857, 83
5574, 137821, 83
5575, 137753, 83
5576, 137671, 83
5577, 137723, 83
5578, 137733, 83
5579, 137715, 83
5580, 137590, 83
5581, 137528, 83
5582, 137453, 83
5583, 137464, 83
5584, 137407, 83
5585, 137205, 83
5586, 137313, 83
5587, 137093, 83
5588, 136987, 83
5589, 136883, 83
5590, 136452, 83
5591, 136089, 83
5592, 135499, 83
5593, 135037, 83
5594, 134341, 83
5595, 133517, 83
5596, 132997, 83
5597, 132352, 83
5598, 131811, 83
5599, 130993, 83
5600, 130369, 83
5601, 129628, 83
5602, 128772, 83
5603, 128317, 83
5604, 127794, 83
5605, 127421, 83
5606, 126901, 83
5607, 126506, 83
5608, 126121, 83
5609, 125679, 83
5610, 125327, 83
5611, 124804, 83
5612, 124528, 83
5613, 124091, 83
5614, 124193, 83
5615, 123735, 83
5616, 123427, 83
5617, 123211, 83
5618, 122914, 83
5619, 122657, 83
5620, 122602, 83
5621, 122484, 83
5622, 122331, 83
5623, 122109, 83
5624, 121869, 83
5625, 121759, 83
5626, 121690, 83
5627, 121755, 83
5628, 121380, 83
5629, 121146, 83
5630, 121356, 83
5631, 121318, 83
5632, 121325, 83
5633, 120957, 83
5634, 120853, 83
5635, 120853, 83
5636, 120911, 83
5637, 121040, 83
5638, 121109, 83
5639, 121366, 83
5640, 121452, 83
5641, 121645, 83
5642, 121673, 83
5643, 121868, 83
5644, 122214, 83
5645, 122395, 83
5646, 122734, 83
5647, 123004, 83
5648, 123229, 83
5649, 123417, 83
5650, 123692, 80
5651, 124003, 80
5652, 124003, 80
5653, 124445, 80
5654, 124628, 80
5655, 125082, 80
5656, 125606, 80
5657, 125969, 80
5658, 126544, 80
5659, 127115, 80
5660, 127717, 80
5661, 128152, 80
5662, 128332, 80
5663, 128664, 80
5664, 128893, 80
5665, 128899, 80
5666, 128953, 80
5667, 129010, 80
5668, 129007, 80
5669, 128794, 80
5670, 128443, 80
5671, 127968, 80
5672, 127607, 80
5673, 127092, 80
5674, 126747, 80
5675, 126340, 80
5676, 126267, 80
5677, 125852, 80
5678, 125472, 80
5679, 125130, 80
5680, 124971, 80
5681, 124677, 80
5682, 124294, 80
5683, 124121, 80
5684, 123926, 80
5685, 123806, 80
5686, 123731, 80
5687, 123539, 80
5688, 123379, 80
5689, 123450, 80
5690, 123155, 80
5691, 122976, 80
5692, 122914, 80
5693, 122691, 80
5694, 122509, 80
5695, 122238, 80
5696, 121894, 80
5697, 121855, 80
5698, 121241, 80
5699, 120807, 80
5700, 120419, 80
5701, 120120, 80
5702, 119968, 80
5703, 119742, 80
5704, 119487, 80
5705, 119185, 80
5706, 118999, 80
5707, 118875, 80
5708, 118621, 80
5709, 118690, 80
5710, 118730, 80
5711, 118732, 80
5712, 118657, 80
5713, 118456, 80
5714, 118567, 80
5715, 118586, 80
5716, 118468, 80
5717, 118498, 80
5718, 118665, 80
5719, 118633, 80
5720, 118741, 80
5721, 118671, 80
5722, 118711, 80
5723, 118641, 80
5724, 118719, 80
5725, 119054, 80
5726, 119109, 80
5727, 119307, 80
5728, 119301, 80
5729, 119443, 80
5730, 119389, 80
5731, 119536, 80
5732, 119644, 80
5733, 119501, 80
5734, 119609, 80
5735, 119870, 80
5736, 120064, 80
5737, 120105, 80
5738, 120287, 80
5739, 120283, 80
5740, 120202, 80
5741, 120417, 80
5742, 120468, 80
5743, 120386, 80
5744, 120277, 80
5745, 120187, 80
5746, 119704, 80
5747, 119373, 80
5748, 119088, 80
5749, 118569, 80
5750, 118165, 80
5751, 117892, 80
5752, 117584, 80
5753, 117387, 80
5754, 117148, 80
5755, 117322, 80
5756, 117420, 80
5757, 117532, 80
5758, 117495, 80
5759, 117410, 80
5760, 117499, 80
5761, 117504, 80
5762, 117699, 80
5763, 117807, 80
5764, 118142, 80
5765, 118423, 80
5766, 118760, 80
5767, 119009, 80
5768, 119106, 80
5769, 119613, 80
5770, 120236, 80
5771, 120651, 80
5772, 121169, 80
5773, 121596, 80
5774, 121779, 80
5775, 122313, 80
5776, 122529, 80
5777, 122943, 80
5778, 123130, 80
5779, 123349, 80
5780, 123551, 80
5781, 123615, 80
5782, 123975, 80
5783, 124125, 80
5784, 124362, 80
5785, 124442, 80
5786, 124725, 80
5787, 125142, 80
5788, 125180, 80
5789, 125748, 80
5790, 125864, 80
5791, 126034, 80
5792, 126142, 80
5793, 126397, 80
5794, 126535, 80
5795, 126731, 80
5796, 127023, 80
5797, 127237, 80
5798, 126986, 80
5799, 127136, 80
5800, 127313, 80
5801, 127607, 80
5802, 127807, 80
5803, 127869, 80
5804, 128401, 80
5805, 128601, 80
5806, 129459, 80
5807, 129585, 80
5808, 129992, 80
5809, 130200, 80
5810, 130753, 80
5811, 131173, 80
5812, 131767, 80
5813, 132632, 80
5814, 132977, 80
5815, 133367, 80
5816, 133932, 80
5817, 134293, 80
5818, 134714, 80
5819, 134811, 80
5820, 134996, 80
5821, 134818, 80
5822, 134697, 80
5823, 134676, 80
5824, 134621, 80
5825, 134549, 80
5826, 134205, 80
5827, 134164, 80
5828, 134253, 80
5829, 134352, 80
5830, 134428, 80
5831, 134561, 80
5832, 134839, 80
5833, 134768, 80
5834, 135109, 80
5835, 134997, 80
5836, 135030, 80
5837, 135300, 80
5838, 135425, 80
5839, 135423, 80
5840, 135700, 80
5841, 135853, 80
5842, 136132, 80
5843, 136095, 80
5844, 136284, 80
5845, 136155, 80
5846, 136467, 80
5847, 136382, 80
5848, 136246, 80
5849, 136327, 80
5850, 136419, 80
5851, 136311, 80
5852, 136129, 80
5853, 136170, 80
5854, 136009, 80
5855, 136018, 80
5856, 136023, 80
5857, 135786, 80
5858, 135559, 80
5859, 135599, 80
5860, 135621, 80
5861, 135460, 80
5862, 135423, 80
5863, 135201, 80
5864, 135278, 80
5865, 135409, 80
5866, 135616, 80
5867, 135519, 80
5868, 135829, 80
5869, 135963, 80
5870, 135886, 80
5871, 136066, 80
5872, 135988, 80
5873, 136116, 80
5874, 136097, 80
5875, 136426, 80
5876, 136721, 80
5877, 136890, 80
5878, 137359, 80
5879, 137481, 80
5880, 137933, 80
5881, 138451, 80
5882, 138647, 80
5883, 139143, 80
5884, 139535, 80
5885, 140117, 80
5886, 140709, 80
5887, 140863, 80
5888, 141325, 80
5889, 141967, 80
5890, 142406, 80
5891, 142559, 80
5892, 143057, 80
5893, 143369, 80
5894, 143744, 80
5895, 144128, 80
5896, 144429, 80
5897, 144564, 80
5898, 144425, 80
5899, 144373, 80
5900, 144414, 80
5901, 143974, 80
5902, 143808, 80
5903, 143655, 80
5904, 143294, 80
5905, 143033, 80
5906, 142696, 80
5907, 142726, 80
5908, 142380, 80
5909, 142098, 80
5910, 141935, 80
5911, 141920, 80
5912, 141617, 80
5913, 141773, 80
5914, 141348, 80
5915, 141202, 80
5916, 141095, 80
5917, 141087, 80
5918, 141159, 80
5919, 141240, 80
5920, 141137, 80
5921, 141312, 80
5922, 141221, 80
5923, 141188, 80
5924, 141393, 80
5925, 141340, 80
5926, 141302, 80
5927, 141556, 80
5928, 141527, 80
5929, 141601, 80
5930, 141581, 80
5931, 141667, 80
5932, 141652, 80
5933, 141698, 80
5934, 141721, 80
5935, 141912, 80
5936, 141880, 80
5937, 141928, 80
5938, 142052, 80
5939, 142162, 80
5940, 142318, 80
5941, 142421, 80
5942, 142627, 80
5943, 142832, 80
5944, 142983, 80
5945, 143257, 80
5946, 143362, 80
5947, 143559, 80
5948, 143889, 80
5949, 144242, 80
5950, 144636, 80
5951, 144749, 80
5952, 145182, 80
5953, 145567, 80
5954, 145911, 80
5955, 146193, 80
5956, 146461, 80
5957, 146872, 80
5958, 147326, 80
5959, 147424, 80
5960, 147793, 80
5961, 148119, 80
5962, 148591, 80
5963, 148687, 80
5964, 149143, 80
5965, 149232, 80
5966, 149432, 80
5967, 149655, 80
5968, 149894, 80
5969, 150285, 80
5970, 150504, 80
5971, 150574, 80
5972, 150673, 80
5973, 151027, 80
5974, 151161, 80
5975, 151259, 80
5976, 151566, 80
5977, 151696, 80
5978, 152067, 80
5979, 152206, 80
5980, 152257, 80
5981, 152310, 80
5982, 152045, 80
5983, 151835, 80
5984, 151740, 80
5985, 151415, 80
5986, 151203, 80
5987, 150879, 80
5988, 150643, 80
5989, 150205, 80
5990, 149930, 80
5991, 149626, 80
5992, 149435, 80
5993, 149238, 80
5994, 148968, 80
5995, 148976, 80
5996, 148739, 80
5997, 148837, 80
5998, 149087, 80
5999, 148868, 80
6000, 148623, 80
6001, 148574, 80
6002, 148719, 80
6003, 148791, 80
6004, 148930, 80
6005, 149054, 80
6006, 149070, 80
6007, 149018, 80
6008, 149032, 80
6009, 149188, 80
6010, 149248, 80
6011, 149441, 80
6012, 149524, 80
6013, 149621, 80
6014, 149747, 80
6015, 149633, 80
6016, 149583, 80
6017, 149659, 80
6018, 149558, 80
6019, 149411, 80
6020, 149606, 80
6021, 149492, 80
6022, 149315, 80
6023, 149497, 80
6024, 149535, 80
6025, 149457, 80
6026, 149596, 80
6027, 149545, 80
6028, 149718, 80
6029, 149603, 80
6030, 149713, 80
6031, 150049, 80
6032, 150262, 80
6033, 150430, 80
6034, 150553, 80
6035, 150533, 80
6036, 150706, 80
6037, 150735, 80
6038, 151039, 80
6039, 151198, 80
6040, 151461, 80
6041, 151425, 80
6042, 151584, 80
6043, 151643, 80
6044, 151759, 80
6045, 151992, 80
6046, 152004, 80
6047, 152148, 80
6048, 152552, 80
6049, 152355, 80
6050, 152751, 80
6051, 153022, 80
6052, 152926, 80
6053, 153259, 80
6054, 153281, 80
6055, 153402, 80
6056, 153517, 80
6057, 153554, 80
6058, 153737, 80
6059, 153924, 80
6060, 154027, 80
6061, 154261, 80
6062, 154333, 80
6063, 154581, 80
6064, 154688, 80
6065, 155033, 80
6066, 155155, 80
6067, 155246, 80
6068, 155047, 80
6069, 154727, 80
6070, 154526, 80
6071, 154085, 80
6072, 153522, 80
6073, 153059, 80
6074, 152683, 80
6075, 152314, 80
6076, 151800, 80
6077, 151415, 80
6078, 150837, 80
6079, 150288, 80
6080, 149933, 80
6081, 149750, 80
6082, 149617, 80
6083, 149337, 80
6084, 149099, 80
6085, 148728, 80
6086, 148700, 80
6087, 148392, 80
6088, 148422, 80
6089, 148336, 80
6090, 148356, 80
6091, 148147, 80
6092, 148087, 80
6093, 148088, 80
6094, 148086, 80
6095, 148074, 80
6096, 147912, 80
6097, 147909, 80
6098, 147909, 80
6099, 147790, 80
6100, 147850, 80
6101, 147775, 80
6102, 147484, 80
6103, 147300, 80
6104, 147179, 80
6105, 146950, 80
6106, 146923, 80
6107, 146685, 80
6108, 146784, 80
6109, 146512, 80
6110, 146582, 80
6111, 146383, 80
6112, 146357, 80
6113, 146390, 80
6114, 146359, 80
6115, 146447, 80
6116, 146362, 80
6117, 146670, 80
6118, 146596, 80
6119, 146376, 80
6120, 146481, 80
6121, 146563, 80
6122, 146916, 80
6123, 146961, 80
6124, 147024, 80
6125, 147319, 80
6126, 147303, 80
6127, 147305, 80
6128, 147351, 80
6129, 147534, 80
6130, 147730, 80
6131, 147820, 80
6132, 148028, 80
6133, 148304, 80
6134, 148316, 80
6135, 148415, 80
6136, 148539, 80
6137, 148598, 80
6138, 148796, 80
6139, 148886, 80
6140, 148948, 80
6141, 149185, 80
6142, 149286, 80
6143, 149480, 80
6144, 149700, 80
6145, 149862, 80
6146, 150034, 80
6147, 150091, 80
6148, 150275, 80
6149, 150552, 80
6150, 150580, 80
6151, 150719, 80
6152, 150963, 80
6153, 151064, 80
6154, 151244, 80
6155, 151430, 80
6156, 151268, 80
6157, 151255, 80
6158, 150967, 80
6159, 150489, 80
6160, 150253, 80
6161, 149795, 80
6162, 149002, 80
6163, 148416, 80
6164, 147785, 80
6165, 147229, 80
6166, 146602, 80
6167, 146032, 80
6168, 145553, 80
6169, 145160, 80
6170, 144736, 80
6171, 144519, 80
6172, 144213, 80
6173, 143938, 80
6174, 143638, 80
6175, 143329, 80
6176, 143200, 80
6177, 143106, 80
6178, 143091, 80
6179, 143157, 80
6180, 143054, 80
6181, 143040, 80
6182, 143033, 80
6183, 143097, 80
6184, 142932, 80
6185, 142883, 80
6186, 142776, 80
6187, 142756, 80
6188, 142616, 80
6189, 142501, 80
6190, 142317, 80
6191, 142305, 80
6192, 141965, 80
6193, 142022, 80
6194, 142006, 80
6195, 141628, 80
6196, 141455, 80
6197, 141213, 80
6198, 141304, 80
6199, 141258, 80
6200, 140955, 80
6201, 141140, 80
6202, 140976, 80
6203, 141128, 80
6204, 141036, 80
6205, 140981, 80
6206, 140905, 80
6207, 141119, 80
6208, 140884, 80
6209, 141062, 80
6210, 141173, 80
6211, 141131, 80
6212, 141232, 80
6213, 141402, 80
6214, 141351, 80
6215, 141475, 80
6216, 141566, 80
6217, 141829, 80
6218, 141700, 80
6219, 141645, 80
6220, 141718, 80
6221, 141710, 80
6222, 142014, 80
6223, 142204, 80
6224, 142123, 80
6225, 142292, 77
6226, 142387, 77
6227, 142571, 77
6228, 142475, 77
6229, 142616, 77
6230, 142670, 77
6231, 142538, 77
6232, 142653, 77
6233, 142981, 77
6234, 143110, 77
6235, 143166, 77
6236, 143249, 77
6237, 143635, 77
6238, 143667, 77
6239, 143794, 77
6240, 144070, 77
6241, 144151, 77
6242, 144242, 77
6243, 144242, 77
6244, 144189, 77
6245, 144151, 77
6246, 143852, 77
6247, 143293, 77
6248, 142696, 77
6249, 142101, 77
6250, 141405, 77
6251, 140797, 77
6252, 140158, 77
6253, 139154, 77
6254, 138510, 77
6255, 137841, 77
6256, 137269, 77
6257, 136681, 77
6258, 136105, 77
6259, 135827, 77
6260, 135774, 77
6261, 135159, 77
6262, 134907, 77
6263, 134542, 77
6264, 134204, 77
6265, 134078, 77
6266, 134077, 77
6267, 133765, 77
6268, 133533, 77
6269, 133292, 77
6270, 133118, 77
6271, 132974, 77
6272, 132869, 77
6273, 132640, 77
6274, 132632, 77
6275, 132330, 77
6276, 131785, 77
6277, 131722, 77
6278, 131425, 77
6279, 130904, 77
6280, 130936, 77
6281, 130458, 77
6282, 130147, 77
6283, 129816, 77
6284, 129428, 77
6285, 129038, 77
6286, 129025, 77
6287, 128609, 77
6288, 128309, 77
6289, 128162, 77
6290, 127912, 77
6291, 127796, 77
6292, 127588, 77
6293, 127536, 77
6294, 127472, 77
6295, 127394, 77
6296, 127546, 77
6297, 127254, 77
6298, 127115, 77
6299, 127028, 77
6300, 126839, 77
6301, 126621, 77
6302, 126530, 77
6303, 126201, 77
6304, 126050, 77
6305, 125694, 77
6306, 125462, 77
6307, 125159, 77
6308, 125075, 77
6309, 124850, 77
6310, 124602, 77
6311, 124453, 77
6312, 124048, 77
6313, 123653, 77
6314, 123539, 77
6315, 123444, 77
6316, 122956, 77
6317, 122539, 77
6318, 122109, 77
6319, 121880, 77
6320, 121549, 77
6321, 121291, 77
6322, 121073, 77
6323, 120637, 77
6324, 120196, 77
6325, 119944, 77
6326, 119540, 77
6327, 119246, 77
6328, 118713, 77
6329, 118272, 77
6330, 117932, 77
6331, 117677, 77
6332, 117123, 77
6333, 116496, 77
6334, 115800, 77
6335, 114761, 77
6336, 113457, 77
6337, 112051, 77
6338, 110719, 77
6339, 109328, 77
6340, 107839, 77
6341, 106565, 77
6342, 105171, 77
6343, 103852, 77
6344, 102683, 77
6345, 101499, 77
6346, 100467, 77
6347, 99529, 77
6348, 98652, 77
6349, 97756, 77
6350, 97099, 77
6351, 96373, 77
6352, 95763, 77
6353, 95377, 77
6354, 95172, 77
6355, 95066, 77
6356, 94827, 77
6357, 94584, 77
6358, 94488, 77
6359, 94448, 77
6360, 94335, 77
6361, 94254, 77
6362, 94291, 77
6363, 94490, 77
6364, 94239, 77
6365, 94118, 77
6366, 94024, 77
6367, 93789, 77
6368, 93385, 77
6369, 93206, 77
6370, 93007, 77
6371, 92501, 77
6372, 92321, 77
6373, 92144, 77
6374, 91744, 77
6375, 91487, 77
6376, 91285, 77
6377, 91094, 77
6378, 90791, 77
6379, 90666, 77
6380, 90359, 77
6381, 90204, 77
6382, 90173, 77
6383, 89927, 77
6384, 89974, 77
6385, 89944, 77
6386, 90021, 77
6387, 90018, 77
6388, 90041, 77
6389, 89956, 77
6390, 90037, 77
6391, 90058, 77
6392, 89967, 77
6393, 89990, 77
6394, 89887, 77
6395, 90001, 77
6396, 89904, 77
6397, 89715, 77
6398, 89842, 77
6399, 89440, 77
6400, 89409, 77
6401, 89393, 77
6402, 89247, 77
6403, 89019, 77
6404, 88743, 77
6405, 88403, 77
6406, 88363, 77
6407, 88281, 77
6408, 88482, 77
6409, 89170, 77
6410, 89995, 77
6411, 91231, 77
6412, 92223, 77
6413, 93389, 77
6414, 94688, 77
6415, 95669, 77
6416, 96616, 77
6417, 97415, 77
6418, 97944, 77
6419, 98548, 77
6420, 98852, 77
6421, 98885, 77
6422, 98686, 77
6423, 98731, 77
6424, 98285, 77
6425, 97877, 77
6426, 97731, 77
6427, 97534, 77
6428, 97467, 77
6429, 97259, 77
6430, 96864, 77
6431, 96076, 77
6432, 95367, 77
6433, 94646, 77
6434, 94210, 77
6435, 93956, 77
6436, 93847, 77
6437, 93702, 77
6438, 93750, 77
6439, 93433, 77
6440, 93063, 77
6441, 92572, 77
6442, 92191, 77
6443, 91504, 77
6444, 90555, 77
6445, 89640, 77
6446, 88676, 77
6447, 87463, 77
6448, 86225, 77
6449, 84682, 77
6450, 83231, 77
6451, 81698, 77
6452, 80239, 77
6453, 78797, 77
6454, 77259, 77
6455, 75876, 77
6456, 75023, 77
6457, 73703, 77
6458, 72344, 77
6459, 71011, 77
6460, 69389, 77
6461, 68021, 77
6462, 66305, 77
6463, 65007, 77
6464, 63226, 77
6465, 60717, 77
6466, 58662, 77
6467, 56970, 77
6468, 55954, 77
6469, 55369, 77
6470, 54264, 77
6471, 52916, 77
6472, 51742, 77
6473, 50607, 77
6474, 49378, 77
6475, 48519, 77
6476, 47570, 77
6477, 46835, 77
6478, 46090, 77
6479, 45187, 77
6480, 44388, 77
6481, 43557, 77
6482, 42751, 77
6483, 42057, 77
6484, 41183, 77
6485, 40678, 77
6486, 40261, 77
6487, 39891, 77
6488, 39442, 77
6489, 38825, 77
6490, 38752, 77
6491, 38831, 77
6492, 38794, 77
6493, 38560, 77
6494, 38231, 77
6495, 37885, 77
6496, 37165, 77
6497, 36336, 77
6498, 35701, 77
6499, 34681, 77
6500, 33582, 77
6501, 32638, 77
6502, 31780, 77
6503, 31118, 77
6504, 30248, 77
6505, 29557, 77
6506, 28985, 77
6507, 28224, 77
6508, 27851, 77
6509, 27621, 77
6510, 27297, 77
6511, 26982, 77
6512, 26941, 77
6513, 26756, 77
6514, 26932, 77
6515, 26814, 77
6516, 26887, 77
6517, 27145, 77
6518, 27254, 77
6519, 27428, 77
6520, 27480, 77
6521, 27481, 77
6522, 27541, 77
6523, 27648, 77
6524, 27665, 77
6525, 27794, 77
6526, 27651, 77
6527, 27776, 77
6528, 27631, 77
6529, 27496, 77
6530, 27505, 77
6531, 27569, 77
6532, 27511, 77
6533, 27386, 77
6534, 27473, 77
6535, 27479, 77
6536, 27454, 77
6537, 27514, 77
6538, 27593, 77
6539, 27817, 77
6540, 28043, 77
6541, 28337, 77
6542, 28638, 77
6543, 28841, 77
6544, 29155, 77
6545, 29423, 77
6546, 29854, 77
6547, 30251, 77
6548, 30614, 77
6549, 30991, 77
6550, 31356, 77
6551, 31740, 77
6552, 31771, 77
6553, 32226, 77
6554, 32593, 77
6555, 32949, 77
6556, 33243, 77
6557, 33562, 77
6558, 33766, 77
6559, 34101, 77
6560, 34336, 77
6561, 34634, 77
6562, 34872, 77
6563, 35042, 77
6564, 35247, 77
6565, 35504, 77
6566, 35430, 77
6567, 35793, 77
6568, 35892, 77
6569, 36091, 77
6570, 35963, 77
6571, 35696, 77
6572, 35605, 77
6573, 34942, 77
6574, 34194, 77
6575, 32222, 77
6576, 32222, 77
6577, 31132, 77
6578, 30066, 77
6579, 28860, 77
6580, 27764, 77
6581, 26892, 77
6582, 26180, 77
6583, 25495, 77
6584, 25093, 77
6585, 24582, 77
6586, 24186, 77
6587, 23937, 77
6588, 23582, 77
6589, 23598, 77
6590, 23667, 77
6591, 23684, 77
6592, 23711, 77
6593, 23650, 77
6594, 23717, 77
6595, 23796, 77
6596, 23903, 77
6597, 23905, 77
6598, 23794, 77
6599, 23857, 77
6600, 24242, 77
6601, 24273, 77
6602, 24247, 77
6603, 24332, 77
6604, 24226, 77
6605, 24290, 77
6606, 24476, 77
6607, 24482, 77
6608, 24204, 77
6609, 24403, 77
6610, 24581, 77
6611, 24550, 77
6612, 24716, 77
6613, 24654, 77
6614, 24736, 77
6615, 24718, 77
6616, 24941, 77
6617, 24751, 77
6618, 24723, 77
6619, 24722, 77
6620, 24980, 77
6621, 25170, 77
6622, 25393, 77
6623, 25494, 77
6624, 25717, 77
6625, 25902, 77
6626, 26459, 77
6627, 26459, 77
6628, 26566, 77
6629, 26864, 77
6630, 27147, 77
6631, 27279, 77
6632, 27328, 77
6633, 27400, 77
6634, 27743, 77
6635, 27862, 77
6636, 28216, 77
6637, 28336, 77
6638, 28403, 77
6639, 28629, 77
6640, 28848, 77
6641, 28942, 77
6642, 29390, 77
6643, 29529, 77
6644, 29655, 77
6645, 29713, 77
6646, 29755, 77
6647, 29653, 77
6648, 30071, 77
6649, 29828, 77
6650, 29621, 74
6651, 29249, 74
6652, 28182, 74
6653, 27368, 74
6654, 26488, 74
6655, 25553, 74
6656, 24572, 74
6657, 23575, 74
6658, 22737, 74
6659, 21777, 74
6660, 20876, 74
6661, 20212, 74
6662, 19632, 74
6663, 19193, 74
6664, 18723, 74
6665, 18458, 74
6666, 18077, 74
6667, 17994, 74
6668, 17730, 74
6669, 17494, 74
6670, 17331, 74
6671, 17681, 74
6672, 17862, 74
6673, 18322, 74
6674, 18686, 74
6675, 19300, 74
6676, 19798, 74
6677, 19953, 74
6678, 20220, 74
6679, 20570, 74
6680, 20431, 74
6681, 19993, 74
6682, 19593, 74
6683, 18929, 74
6684, 18407, 74
6685, 17669, 74
6686, 16505, 74
6687, 15499, 74
6688, 14544, 74
6689, 13133, 74
6690, 12156, 74
6691, 11083, 74
6692, 10039, 74
6693, 9096, 74
6694, 8428, 74
6695, 7727, 74
6696, 7224, 74
6697, 6754, 74
6698, 6668, 74
6699, 6428, 74
6700, 6326, 74
6701, 6081, 74
6702, 5980, 74
6703, 5962, 74
6704, 6376, 74
6705, 6726, 74
6706, 6896, 74
6707, 7478, 74
6708, 7858, 74
6709, 8271, 74
6710, 8860, 74
6711, 8943, 74
6712, 9107, 74
6713, 9283, 74
6714, 9355, 74
6715, 9806, 74
6716, 9855, 74
6717, 10000, 74
6718, 9908, 74
6719, 9879, 74
6720, 10126, 74
6721, 10153, 74
6722, 10476, 74
6723, 10745, 74
6724, 10682, 74
6725, 10700, 74
6726, 10656, 74
6727, 10435, 74
6728, 10602, 74
6729, 10779, 74
6730, 10616, 74
6731, 10313, 74
6732, 10158, 74
6733, 9696, 74
6734, 9064, 74
6735, 8306, 74
6736, 7622, 74
6737, 6380, 74
6738, 5429, 74
6739, 4315, 74
6740, 3125, 74
6741, 2171, 74
6742, 982, 74
6743, -99, 74
6744, -1073, 74
6745, -1980, 74
6746, -2835, 74
6747, -3701, 74
6748, -4356, 74
6749, -5059, 74
6750, -5872, 74
6751, -6416, 74
6752, -7226, 74
6753, -7899, 74
6754, -8878, 74
6755, -9869, 74
6756, -10852, 74
6757, -11737, 74
6758, -12645, 74
6759, -13670, 74
6760, -14792, 74
6761, -15761, 74
6762, -16864, 74
6763, -17698, 74
6764, -18705, 74
6765, -19537, 74
6766, -20613, 74
6767, -21565, 74
6768, -22603, 74
6769, -23471, 74
6770, -24358, 74
6771, -25255, 74
6772, -25995, 74
6773, -26866, 74
6774, -27480, 74
6775, -27947, 74
6776, -28563, 74
6777, -29209, 74
6778, -29593, 74
6779, -30050, 74
6780, -30509, 74
6781, -30951, 74
6782, -31254, 74
6783, -31353, 74
6784, -31743, 74
6785, -32105, 74
6786, -32184, 74
6787, -32431, 74
6788, -32719, 74
6789, -33051, 74
6790, -33185, 74
6791, -33618, 74
6792, -34043, 74
6793, -34485, 74
6794, -34690, 74
6795, -34913, 74
6796, -35287, 74
6797, -35403, 74
6798, -35464, 74
6799, -35707, 74
6800, -35938, 74
6801, -36184, 74
6802, -36404, 74
6803, -36824, 74
6804, -36815, 74
6805, -37157, 74
6806, -37377, 74
6807, -37606, 74
6808, -38052, 74
6809, -38363, 74
6810, -38881, 74
6811, -39325, 74
6812, -39631, 74
6813, -39906, 74
6814, -40315, 74
6815, -40581, 74
6816, -40679, 74
6817, -40999, 74
6818, -41096, 74
6819, -41054, 74
6820, -40916, 74
6821, -40813, 74
6822, -40376, 74
6823, -39842, 74
6824, -39288, 74
6825, -38625, 74
6826, -37730, 74
6827, -36976, 74
6828, -36454, 74
6829, -35979, 74
6830, -35437, 74
6831, -35009, 74
6832, -34564, 74
6833, -33985, 74
6834, -33570, 74
6835, -32966, 74
6836, -32488, 74
6837, -32094, 74
6838, -31719, 74
6839, -31296, 74
6840, -31059, 74
6841, -30819, 74
6842, -30724, 74
6843, -30349, 74
6844, -30177, 74
6845, -29971, 74
6846, -29643, 74
6847, -29532, 74
6848, -29445, 74
6849, -29410, 74
6850, -29444, 74
6851, -29470, 74
6852, -29315, 74
6853, -28992, 74
6854, -28771, 74
6855, -28759, 74
6856, -28747, 74
6857, -28790, 74
6858, -28801, 74
6859, -28641, 74
6860, -28607, 74
6861, -28487, 74
6862, -28327, 74
6863, -28312, 74
6864, -28301, 74
6865, -28449, 74
6866, -28398, 74
6867, -28317, 74
6868, -27994, 74
6869, -27616, 74
6870, -27210, 74
6871, -27094, 74
6872, -26805, 74
6873, -26587, 74
6874, -26535, 74
6875, -26092, 74
6876, -25649, 74
6877, -25381, 74
6878, -24853, 74
6879, -24431, 74
6880, -24014, 74
6881, -23561, 74
6882, -23519, 74
6883, -23742, 74
6884, -24002, 74
6885, -24416, 74
6886, -24950, 74
6887, -25218, 74
6888, -25613, 74
6889, -25909, 74
6890, -26311, 74
6891, -26770, 74
6892, -27174, 74
6893, -27817, 74
6894, -28035, 74
6895, -28681, 74
6896, -29118, 74
6897, -29463, 74
6898, -29968, 74
6899, -30335, 74
6900, -30952, 74
6901, -31434, 74
6902, -31651, 74
6903, -31894, 74
6904, -32075, 74
6905, -32211, 74
6906, -32729, 74
6907, -32977, 74
6908, -33357, 74
6909, -33851, 74
6910, -34234, 74
6911, -34511, 74
6912, -34918, 74
6913, -35118, 74
6914, -35435, 74
6915, -35745, 74
6916, -35691, 74
6917, -35756, 74
6918, -36073, 74
6919, -35905, 74
6920, -36060, 74
6921, -36236, 74
6922, -35855, 74
6923, -35790, 74
6924, -35617, 74
6925, -35555, 74
6926, -35711, 74
6927, -35675, 74
6928, -35666, 74
6929, -35530, 74
6930, -35647, 74
6931, -35284, 74
6932, -35458, 74
6933, -35633, 74
6934, -35213, 74
6935, -34952, 74
6936, -34942, 74
6937, -34906, 74
6938, -35094, 74
6939, -35552, 74
6940, -36066, 74
6941, -36412, 74
6942, -36829, 74
6943, -37130, 74
6944, -37588, 74
6945, -37780, 74
6946, -37935, 74
6947, -38230, 74
6948, -38730, 74
6949, -39242, 74
6950, -39669, 74
6951, -39837, 74
6952, -40146, 74
6953, -40324, 74
6954, -40332, 74
6955, -40624, 74
6956, -40683, 74
6957, -40668, 74
6958, -40583, 74
6959, -40348, 74
6960, -40130, 74
6961, -39536, 74
6962, -38975, 74
6963, -38153, 74
6964, -37354, 74
6965, -36408, 74
6966, -35082, 74
6967, -34082, 74
6968, -33154, 74
6969, -32223, 74
6970, -31285, 74
6971, -30565, 74
6972, -29830, 74
6973, -29284, 74
6974, -29035, 74
6975, -28531, 74
6976, -28053, 74
6977, -28127, 74
6978, -27578, 74
6979, -27578, 74
6980, -27397, 74
6981, -27226, 74
6982, -26885, 74
6983, -26498, 74
6984, -26108, 74
6985, -25736, 74
6986, -25216, 74
6987, -24553, 74
6988, -23906, 74
6989, -23257, 74
6990, -22214, 74
6991, -21341, 74
6992, -20305, 74
6993, -19727, 74
6994, -18778, 74
6995, -18164, 74
6996, -17056, 74
6997, -16162, 74
6998, -15084, 74
6999, -14193, 74
7000, -12949, 74
7001, -11679, 74
7002, -10553, 74
7003, -9105, 74
7004, -7864, 74
7005, -6458, 74
7006, -5209, 74
7007, -3902, 74
7008, -2678, 74
7009, -1331, 74
7010, -292, 74
7011, 890, 74
7012, 1985, 74
7013, 3122, 74
7014, 4305, 74
7015, 5291, 74
7016, 6484, 74
7017, 7766, 74
7018, 8632, 74
7019, 9545, 74
7020, 10779, 74
7021, 11903, 74
7022, 13035, 74
7023, 14380, 74
7024, 15681, 74
7025, 16949, 69
7026, 18039, 69
7027, 19206, 69
7028, 20208, 69
7029, 21185, 69
7030, 22045, 69
7031, 22854, 69
7032, 23716, 69
7033, 24637, 69
7034, 25485, 69
7035, 26255, 69
7036, 27091, 69
7037, 27755, 69
7038, 28208, 69
7039, 28862, 69
7040, 29246, 69
7041, 29526, 69
7042, 29821, 69
7043, 30294, 69
7044, 30635, 69
7045, 31128, 69
7046, 31719, 69
7047, 32216, 69
7048, 32892, 69
7049, 33379, 69
7050, 34264, 69
7051, 34989, 69
7052, 35279, 69
7053, 35743, 69
7054, 36793, 69
7055, 37365, 69
7056, 37873, 69
7057, 38658, 69
7058, 39630, 69
7059, 40516, 69
7060, 41321, 69
7061, 42221, 69
7062, 42975, 69
7063, 43654, 69
7064, 43954, 69
7065, 44882, 69
7066, 45288, 69
7067, 45454, 69
7068, 45451, 69
7069, 45330, 69
7070, 44576, 69
7071, 43817, 69
7072, 43121, 69
7073, 42285, 69
7074, 41837, 69
7075, 41320, 69
7076, 40642, 69
7077, 39931, 69
7078, 39393, 69
7079, 38699, 69
7080, 38072, 69
7081, 37450, 69
7082, 36923, 69
7083, 36393, 69
7084, 36147, 69
7085, 35832, 69
7086, 35773, 69
7087, 35593, 69
7088, 35727, 69
7089, 36338, 69
7090, 36407, 69
7091, 36736, 69
7092, 37213, 69
7093, 37503, 69
7094, 38267, 69
7095, 38787, 69
7096, 39153, 69
7097, 39643, 69
7098, 40163, 69
7099, 40623, 69
7100, 40775, 69
7101, 41301, 69
7102, 41332, 69
7103, 41340, 69
7104, 41480, 69
7105, 41518, 69
7106, 41914, 69
7107, 41812, 69
7108, 42237, 69
7109, 42232, 69
7110, 42309, 69
7111, 42809, 69
7112, 42998, 69
7113, 43333, 69
7114, 43457, 69
7115, 43564, 69
7116, 43315, 69
7117, 43167, 69
7118, 43027, 69
7119, 42927, 69
7120, 42763, 69
7121, 42696, 69
7122, 42448, 69
7123, 42099, 69
7124, 41766, 69
7125, 41406, 69
7126, 40733, 69
7127, 40261, 69
7128, 39359, 69
7129, 38762, 69
7130, 38032, 69
7131, 37248, 69
7132, 36572, 69
7133, 35852, 69
7134, 35222, 69
7135, 34358, 69
7136, 33767, 69
7137, 32855, 69
7138, 32184, 69
7139, 31327, 69
7140, 30589, 69
7141, 29810, 69
7142, 29128, 69
7143, 28469, 69
7144, 27867, 69
7145, 27245, 69
7146, 26719, 69
7147, 25881, 69
7148, 25345, 69
7149, 24787, 69
7150, 24101, 69
7151, 23645, 69
7152, 23263, 69
7153, 23022, 69
7154, 22735, 69
7155, 22461, 69
7156, 22567, 69
7157, 22605, 69
7158, 22555, 69
7159, 22454, 69
7160, 22371, 69
7161, 22434, 69
7162, 22237, 69
7163, 22046, 69
7164, 21961, 69
7165, 21914, 69
7166, 21913, 69
7167, 21856, 69
7168, 22063, 69
7169, 21994, 69
7170, 21936, 69
7171, 21862, 69
7172, 21795, 69
7173, 21716, 69
7174, 21735, 69
7175, 21808, 69
7176, 21859, 69
7177, 21836, 69
7178, 21784, 69
7179, 22028, 69
7180, 21849, 69
7181, 21604, 69
7182, 21631, 69
7183, 21457, 69
7184, 21542, 69
7185, 21545, 69
7186, 21733, 69
7187, 21674, 69
7188, 21818, 69
7189, 21771, 69
7190, 21699, 69
7191, 21426, 69
7192, 21353, 69
7193, 21200, 69
7194, 20969, 69
7195, 21138, 69
7196, 20762, 69
7197, 20573, 69
7198, 20537, 69
7199, 20255, 69
7200, 19977, 69
7201, 19878, 69
7202, 19517, 69
7203, 19426, 69
7204, 19254, 69
7205, 19230, 69
7206, 19070, 69
7207, 19000, 69
7208, 18980, 69
7209, 18960, 69
7210, 18872, 69
7211, 18796, 69
7212, 18772, 69
7213, 18835, 69
7214, 18831, 69
7215, 18777, 69
7216, 18865, 69
7217, 19372, 69
7218, 19360, 69
7219, 19267, 69
7220, 19331, 69
7221, 19402, 69
7222, 19695, 69
7223, 19817, 69
7224, 20011, 69
7225, 20196, 63
7226, 20623, 63
7227, 20882, 63
7228, 21175, 63
7229, 21258, 63
7230, 21263, 63
7231, 21458, 63
7232, 21419, 63
7233, 21949, 63
7234, 22098, 63
7235, 22635, 63
7236, 23217, 63
7237, 23761, 63
7238, 24257, 63
7239, 25099, 63
7240, 25935, 63
7241, 26776, 63
7242, 27661, 63
7243, 28414, 63
7244, 29235, 63
7245, 30073, 63
7246, 30732, 63
7247, 31548, 63
7248, 32025, 63
7249, 33084, 63
7250, 33769, 63
