Bvp Num, Bvp
4050, 176927, 56
4051, 176817, 56
4052, 176492, 56
4053, 176324, 56
4054, 176025, 56
4055, 499183, 56
4056, 216099, 56
4057, 140369, 56
4058, 120047, 56
4059, 114711, 56
4060, 113216, 56
4061, 112839, 56
4062, 112746, 56
4063, 112635, 56
4064, 112755, 56
4065, 112690, 56
4066, 112601, 56
4067, 112664, 56
4068, 112665, 56
4069, 112701, 56
4070, 112715, 56
4071, 112766, 56
4072, 112690, 56
4073, 112684, 56
4074, 112688, 56
4075, 112635, 56
4076, 112785, 56
4077, 112813, 56
4078, 112883, 56
4079, 112720, 56
4080, 112841, 56
4081, 112841, 56
4082, 1922887, 56
4083, 1877594, 56
4084, 1868871, 56
4085, 1865829, 56
4086, 1863809, 56
4087, 1863468, 56
4088, 1863570, 56
4089, 1863313, 56
4090, 1863222, 56
4091, 1863076, 56
4092, 1862903, 56
4093, 1862943, 56
4094, 1963665, 56
4095, 1990516, 56
4096, 1997674, 56
4097, 1999588, 56
4098, 2000310, 56
4099, 2000230, 56
4100, 2000207, 56
4101, 2000200, 56
4102, 2000228, 56
4103, 2000140, 56
4104, 2000474, 56
4105, 2000250, 56
4106, 1452043, 56
4107, 1227968, 56
4108, 1168082, 56
4109, 1152058, 56
4110, 1147908, 56
4111, 1146239, 56
4112, 1146051, 56
4113, 1145914, 56
4114, 1145625, 56
4115, 1145441, 56
4116, 1145307, 56
4117, 1144670, 56
4118, 725830, 56
4119, 613502, 56
4120, 583301, 56
4121, 575061, 56
4122, 573008, 56
4123, 572264, 56
4124, 571933, 56
4125, 571888, 56
4126, 571876, 56
4127, 571771, 56
4128, 571492, 56
4129, 571367, 56
4130, 571452, 56
4131, -1047170, 56
4132, -1481224, 56
4133, -1597780, 56
4134, -1629124, 56
4135, -1637603, 56
4136, -1639872, 56
4137, -1640662, 56
4138, -1640774, 56
4139, -1640915, 56
4140, -1641187, 56
4141, -1641426, 56
4142, -1641415, 56
4143, -369671, 56
4144, -28596, 56
4145, 62696, 56
4146, 87162, 56
4147, 93557, 56
4148, 95142, 56
4149, 95591, 56
4150, 95918, 56
4151, 95824, 56
4152, 95743, 56
4153, 95783, 56
4154, 96086, 56
4155, 96068, 56
4156, 96019, 56
4157, 96064, 56
4158, 95990, 56
4159, 96209, 56
4160, 96428, 56
4161, 96498, 56
4162, 96525, 56
4163, 96619, 56
4164, 96761, 56
4165, 96928, 56
4166, 96900, 56
4167, 96904, 56
4168, 97196, 56
4169, 97376, 56
4170, 97472, 56
4171, 97591, 56
4172, 97844, 56
4173, 98070, 56
4174, 98129, 56
4175, 98218, 119
4176, 98316, 119
4177, 98800, 119
4178, 98927, 119
4179, 99024, 119
4180, 99300, 119
4181, 99677, 119
4182, 99757, 119
4183, 100009, 119
4184, 100299, 119
4185, 100479, 119
4186, 100929, 119
4187, 100763, 119
4188, 101135, 119
4189, 101631, 119
4190, 101683, 119
4191, 102321, 119
4192, 102732, 119
4193, 102591, 119
4194, 102593, 119
4195, 102652, 119
4196, 102564, 119
4197, 102287, 119
4198, 102091, 119
4199, 101582, 119
4200, 101114, 119
4201, 100552, 119
4202, 99998, 119
4203, 99605, 119
4204, 99178, 119
4205, 98741, 119
4206, 98385, 119
4207, 97912, 119
4208, 97600, 119
4209, 97234, 119
4210, 96898, 119
4211, 96449, 119
4212, 96206, 119
4213, 95755, 119
4214, 95469, 119
4215, 95149, 119
4216, 94605, 119
4217, 94436, 119
4218, 94362, 119
4219, 94396, 119
4220, 94032, 119
4221, 93769, 119
4222, 93551, 119
4223, 93407, 119
4224, 93289, 119
4225, 93143, 119
4226, 92842, 119
4227, 92594, 119
4228, 92395, 119
4229, 92054, 119
4230, 91940, 119
4231, 91520, 119
4232, 91484, 119
4233, 91260, 119
4234, 91124, 119
4235, 90943, 119
4236, 91003, 119
4237, 90830, 119
4238, 90814, 119
4239, 90518, 119
4240, 90841, 119
4241, 90554, 119
4242, 90694, 119
4243, 90849, 119
4244, 90727, 119
4245, 90702, 119
4246, 90727, 119
4247, 90872, 119
4248, 90908, 119
4249, 90975, 119
4250, 91026, 119
4251, 91070, 119
4252, 91144, 119
4253, 91286, 119
4254, 91149, 119
4255, 91380, 119
4256, 91557, 119
4257, 91541, 119
4258, 91786, 119
4259, 91925, 119
4260, 91934, 119
4261, 92171, 119
4262, 92394, 119
4263, 92432, 119
4264, 92623, 119
4265, 92749, 119
4266, 92851, 119
4267, 92945, 119
4268, 93148, 119
4269, 93263, 119
4270, 93544, 119
4271, 93746, 119
4272, 93963, 119
4273, 94339, 119
4274, 94415, 119
4275, 94640, 86
4276, 94845, 86
4277, 95132, 86
4278, 95230, 86
4279, 95489, 86
4280, 95746, 86
4281, 96152, 86
4282, 96206, 86
4283, 96439, 86
4284, 96627, 86
4285, 96860, 86
4286, 96901, 86
4287, 97046, 86
4288, 96991, 86
4289, 96605, 86
4290, 96336, 86
4291, 95829, 86
4292, 95450, 86
4293, 94903, 86
4294, 94275, 86
4295, 93666, 86
4296, 93287, 86
4297, 92726, 86
4298, 92096, 86
4299, 91649, 86
4300, 91022, 86
4301, 90525, 86
4302, 90073, 86
4303, 89624, 86
4304, 88950, 86
4305, 88411, 86
4306, 88058, 86
4307, 87574, 86
4308, 87079, 86
4309, 86622, 86
4310, 86038, 86
4311, 85869, 86
4312, 85152, 86
4313, 84930, 86
4314, 84554, 86
4315, 84248, 86
4316, 83960, 86
4317, 83563, 86
4318, 83085, 86
4319, 82898, 86
4320, 82633, 86
4321, 82389, 86
4322, 82036, 86
4323, 81691, 86
4324, 81526, 86
4325, 81181, 86
4326, 80921, 86
4327, 80734, 86
4328, 80572, 86
4329, 80344, 86
4330, 80064, 86
4331, 79960, 86
4332, 79983, 86
4333, 79814, 86
4334, 79656, 86
4335, 79625, 86
4336, 79627, 86
4337, 79477, 86
4338, 79644, 86
4339, 79400, 86
4340, 79289, 86
4341, 79490, 86
4342, 79537, 86
4343, 79754, 86
4344, 79240, 86
4345, 79372, 86
4346, 79462, 86
4347, 79526, 86
4348, 79484, 86
4349, 79742, 86
4350, 79870, 86
4351, 79778, 86
4352, 79833, 86
4353, 79586, 86
4354, 79883, 86
4355, 79804, 86
4356, 79905, 86
4357, 80119, 86
4358, 80113, 86
4359, 80191, 86
4360, 80394, 86
4361, 80501, 86
4362, 80676, 86
4363, 80899, 86
4364, 81089, 86
4365, 81114, 86
4366, 81043, 86
4367, 81556, 86
4368, 81708, 86
4369, 81939, 86
4370, 82143, 86
4371, 82308, 86
4372, 82649, 86
4373, 83031, 86
4374, 83258, 86
4375, 83487, 86
4376, 83771, 86
4377, 83928, 86
4378, 84124, 86
4379, 84551, 86
4380, 84794, 86
4381, 85151, 86
4382, 85432, 86
4383, 85808, 86
4384, 86010, 86
4385, 86506, 86
4386, 86727, 86
4387, 86773, 86
4388, 87164, 86
4389, 87231, 86
4390, 87270, 86
4391, 87194, 86
4392, 86753, 86
4393, 86765, 86
4394, 86100, 86
4395, 85665, 86
4396, 85326, 86
4397, 84758, 86
4398, 84336, 86
4399, 83958, 86
4400, 83321, 86
4401, 82665, 86
4402, 82262, 86
4403, 81803, 86
4404, 81258, 86
4405, 80754, 86
4406, 80267, 86
4407, 79940, 86
4408, 79480, 86
4409, 78822, 86
4410, 78302, 86
4411, 78138, 86
4412, 77909, 86
4413, 77419, 86
4414, 76900, 86
4415, 76566, 86
4416, 76149, 86
4417, 75763, 86
4418, 75511, 86
4419, 75204, 86
4420, 74940, 86
4421, 74796, 86
4422, 74610, 86
4423, 74253, 86
4424, 74017, 86
4425, 73599, 74
4426, 73294, 74
4427, 73020, 74
4428, 72816, 74
4429, 72591, 74
4430, 72278, 74
4431, 72504, 74
4432, 72236, 74
4433, 72069, 74
4434, 71813, 74
4435, 71493, 74
4436, 71532, 74
4437, 71476, 74
4438, 71548, 74
4439, 71496, 74
4440, 71450, 74
4441, 71420, 74
4442, 71383, 74
4443, 71437, 74
4444, 71247, 74
4445, 71275, 74
4446, 71371, 74
4447, 71218, 74
4448, 71405, 74
4449, 71436, 74
4450, 71539, 74
4451, 71525, 74
4452, 71578, 74
4453, 71754, 74
4454, 71811, 74
4455, 72014, 74
4456, 72342, 74
4457, 72250, 74
4458, 72249, 74
4459, 72444, 74
4460, 72681, 74
4461, 73292, 74
4462, 72995, 74
4463, 72972, 74
4464, 73117, 74
4465, 73221, 74
4466, 73421, 74
4467, 73667, 74
4468, 73929, 74
4469, 74035, 74
4470, 74411, 74
4471, 74436, 74
4472, 74820, 74
4473, 74941, 74
4474, 75186, 74
4475, 75471, 74
4476, 75634, 74
4477, 75878, 74
4478, 76039, 74
4479, 76399, 74
4480, 76632, 74
4481, 77018, 74
4482, 77287, 74
4483, 77555, 74
4484, 77932, 74
4485, 78205, 74
4486, 78523, 74
4487, 78742, 74
4488, 79089, 74
4489, 79361, 74
4490, 79496, 74
4491, 79997, 74
4492, 80393, 74
4493, 80929, 74
4494, 81042, 74
4495, 81293, 74
4496, 81684, 74
4497, 81958, 74
4498, 82287, 74
4499, 82533, 74
4500, 82735, 74
4501, 82804, 74
4502, 82577, 74
4503, 82480, 74
4504, 82080, 74
4505, 81877, 74
4506, 81459, 74
4507, 81271, 74
4508, 80767, 74
4509, 80484, 74
4510, 80201, 74
4511, 79749, 74
4512, 79415, 74
4513, 79070, 74
4514, 78744, 74
4515, 78322, 74
4516, 77987, 74
4517, 77552, 74
4518, 77065, 74
4519, 76898, 74
4520, 76676, 74
4521, 76384, 74
4522, 75965, 74
4523, 75815, 74
4524, 75404, 74
4525, 75073, 74
4526, 75075, 74
4527, 74987, 74
4528, 74778, 74
4529, 74476, 74
4530, 74338, 74
4531, 73980, 74
4532, 73951, 74
4533, 73610, 74
4534, 73284, 74
4535, 73233, 74
4536, 72991, 74
4537, 72980, 74
4538, 72735, 74
4539, 72772, 74
4540, 72638, 74
4541, 72653, 74
4542, 72262, 74
4543, 72349, 74
4544, 72313, 74
4545, 72432, 74
4546, 72354, 74
4547, 72399, 74
4548, 72348, 74
4549, 72386, 74
4550, 72576, 60
4551, 72579, 60
4552, 72612, 60
4553, 72765, 60
4554, 72867, 60
4555, 72990, 60
4556, 73183, 60
4557, 73082, 60
4558, 73153, 60
4559, 73240, 60
4560, 73373, 60
4561, 73580, 60
4562, 73792, 60
4563, 74109, 60
4564, 74177, 60
4565, 74311, 60
4566, 74397, 60
4567, 74703, 60
4568, 74805, 60
4569, 75145, 60
4570, 75433, 60
4571, 75571, 60
4572, 75804, 60
4573, 76041, 60
4574, 76282, 60
4575, 76690, 60
4576, 76977, 60
4577, 77397, 60
4578, 77540, 60
4579, 77747, 60
4580, 77974, 60
4581, 78351, 60
4582, 78612, 60
4583, 78936, 60
4584, 79323, 60
4585, 79475, 60
4586, 80042, 60
4587, 80230, 60
4588, 80781, 60
4589, 80975, 60
4590, 81277, 60
4591, 81544, 60
4592, 82011, 60
4593, 82586, 60
4594, 83100, 60
4595, 83550, 60
4596, 83644, 60
4597, 84245, 60
4598, 84337, 60
4599, 84594, 60
4600, 85047, 60
4601, 85247, 60
4602, 85246, 60
4603, 85344, 60
4604, 85344, 60
4605, 85007, 60
4606, 84888, 60
4607, 84582, 60
4608, 84222, 60
4609, 84043, 60
4610, 83611, 60
4611, 83494, 60
4612, 83167, 60
4613, 82966, 60
4614, 82620, 60
4615, 82561, 60
4616, 82257, 60
4617, 81939, 60
4618, 81760, 60
4619, 81527, 60
4620, 81171, 60
4621, 81129, 60
4622, 80950, 60
4623, 80608, 60
4624, 80345, 60
4625, 80144, 60
4626, 79925, 60
4627, 80068, 60
4628, 79655, 60
4629, 79564, 60
4630, 79601, 60
4631, 79510, 60
4632, 79492, 60
4633, 79255, 60
4634, 78988, 60
4635, 78581, 60
4636, 78681, 60
4637, 78363, 60
4638, 78307, 60
4639, 78325, 60
4640, 78297, 60
4641, 78332, 60
4642, 78260, 60
4643, 78150, 60
4644, 78120, 60
4645, 78232, 60
4646, 78202, 60
4647, 78261, 60
4648, 78316, 60
4649, 78511, 60
4650, 78422, 60
4651, 78450, 60
4652, 78525, 60
4653, 78908, 60
4654, 78774, 60
4655, 78863, 60
4656, 79046, 60
4657, 79234, 60
4658, 79358, 60
4659, 79429, 60
4660, 79797, 60
4661, 79913, 60
4662, 80069, 60
4663, 80276, 60
4664, 80622, 60
4665, 80834, 60
4666, 80962, 60
4667, 81224, 60
4668, 81375, 60
4669, 81688, 60
4670, 81991, 60
4671, 82445, 60
4672, 82601, 60
4673, 82793, 60
4674, 83072, 60
4675, 83390, 60
4676, 83585, 60
4677, 83920, 60
4678, 84366, 60
4679, 84797, 60
4680, 85013, 60
4681, 85188, 60
4682, 85612, 60
4683, 85971, 60
4684, 86572, 60
4685, 86799, 60
4686, 87046, 60
4687, 87413, 60
4688, 87868, 60
4689, 88029, 60
4690, 88455, 60
4691, 88954, 60
4692, 89292, 60
4693, 89500, 60
4694, 89863, 60
4695, 90306, 60
4696, 90728, 60
4697, 91101, 60
4698, 91387, 60
4699, 91928, 60
4700, 92928, 56
4701, 93169, 56
4702, 93486, 56
4703, 93475, 56
4704, 93403, 56
4705, 92894, 56
4706, 93115, 56
4707, 93027, 56
4708, 92492, 56
4709, 92382, 56
4710, 92104, 56
4711, 91906, 56
4712, 91624, 56
4713, 91242, 56
4714, 91021, 56
4715, 90742, 56
4716, 90526, 56
4717, 90006, 56
4718, 89683, 56
4719, 89655, 56
4720, 89317, 56
4721, 89138, 56
4722, 88667, 56
4723, 88627, 56
4724, 88373, 56
4725, 87580, 56
4726, 87452, 56
4727, 87324, 56
4728, 87109, 56
4729, 86906, 56
4730, 86824, 56
4731, 86836, 56
4732, 86563, 56
4733, 86434, 56
4734, 86629, 56
4735, 86276, 56
4736, 86288, 56
4737, 86442, 56
4738, 85990, 56
4739, 86049, 56
4740, 86236, 56
4741, 86151, 56
4742, 85947, 56
4743, 86104, 56
4744, 86141, 56
4745, 85925, 56
4746, 85941, 56
4747, 86020, 56
4748, 85811, 56
4749, 86012, 56
4750, 91863, 56
4751, 92133, 56
4752, 92273, 56
4753, 92623, 56
4754, 92632, 56
4755, 93380, 56
4756, 93518, 56
4757, 93838, 56
4758, 94212, 56
4759, 94362, 56
4760, 94878, 56
4761, 95403, 56
4762, 95757, 56
4763, 96069, 56
4764, 96504, 56
4765, 96918, 56
4766, 97038, 56
4767, 97614, 56
4768, 97982, 56
4769, 98353, 56
4770, 98646, 56
4771, 99130, 56
4772, 99427, 56
4773, 99810, 56
4774, 100164, 56
4775, 100583, 56
4776, 101024, 56
4777, 101410, 56
4778, 101684, 56
4779, 101781, 56
4780, 102016, 56
4781, 102063, 56
4782, 102120, 56
4783, 101981, 56
4784, 101689, 56
4785, 101540, 56
4786, 101282, 56
4787, 100964, 56
4788, 100806, 56
4789, 100579, 56
4790, 100145, 56
4791, 99666, 56
4792, 99408, 56
4793, 99183, 56
4794, 98954, 56
4795, 98664, 56
4796, 98534, 56
4797, 98239, 56
4798, 97854, 56
4799, 97819, 56
4800, 96722, 56
4801, 96555, 56
4802, 96100, 56
4803, 96113, 56
4804, 95792, 56
4805, 95495, 56
4806, 95368, 56
4807, 95187, 56
4808, 94749, 56
4809, 94784, 56
4810, 94698, 56
4811, 94481, 56
4812, 94096, 56
4813, 94080, 56
4814, 93867, 56
4815, 93755, 56
4816, 93699, 56
4817, 93626, 56
4818, 93422, 56
4819, 93388, 56
4820, 93083, 56
4821, 93157, 56
4822, 93027, 56
4823, 92896, 56
4824, 93087, 56
4825, 96044, 56
4826, 96287, 56
4827, 96661, 56
4828, 96679, 56
4829, 96850, 56
4830, 97001, 56
4831, 97369, 56
4832, 97681, 56
4833, 97879, 56
4834, 98160, 56
4835, 98373, 56
4836, 98790, 56
4837, 99033, 56
4838, 99306, 56
4839, 99642, 56
4840, 100014, 56
4841, 100276, 56
4842, 100676, 56
4843, 100883, 56
4844, 101273, 56
4845, 101531, 56
4846, 101887, 56
4847, 102194, 56
4848, 102416, 56
4849, 102892, 56
4850, 104082, 56
4851, 104156, 56
4852, 104525, 56
4853, 104995, 56
4854, 105389, 56
4855, 105698, 56
4856, 105853, 56
4857, 106173, 56
4858, 106332, 56
4859, 106274, 56
4860, 106275, 56
4861, 106241, 56
4862, 105991, 56
4863, 105648, 56
4864, 105306, 56
4865, 105085, 56
4866, 104612, 56
4867, 104262, 56
4868, 104034, 56
4869, 103653, 56
4870, 103328, 56
4871, 103121, 56
4872, 102449, 56
4873, 102357, 56
4874, 101955, 56
4875, 95044, 56
4876, 95024, 56
4877, 95050, 56
4878, 95029, 56
4879, 94839, 56
4880, 94899, 56
4881, 95039, 56
4882, 95159, 56
4883, 95146, 56
4884, 95213, 56
4885, 94964, 56
4886, 95295, 56
4887, 95347, 56
4888, 95545, 56
4889, 95685, 56
4890, 95731, 56
4891, 95717, 56
4892, 95807, 56
4893, 95921, 56
4894, 96149, 56
4895, 96270, 56
4896, 96357, 56
4897, 96547, 56
4898, 96749, 56
4899, 96880, 56
4900, 97317, 56
4901, 97428, 56
4902, 97664, 56
4903, 97876, 56
4904, 97977, 56
4905, 98271, 56
4906, 98517, 56
4907, 98687, 56
4908, 98887, 56
4909, 99061, 56
4910, 99262, 56
4911, 99472, 56
4912, 99805, 56
4913, 100042, 56
4914, 100429, 56
4915, 100591, 56
4916, 100925, 56
4917, 101090, 56
4918, 101518, 56
4919, 101697, 56
4920, 102012, 56
4921, 102265, 56
4922, 102716, 56
4923, 103043, 56
4924, 103409, 56
4925, 103989, 56
4926, 104138, 56
4927, 104398, 56
4928, 104353, 56
4929, 104325, 56
4930, 104063, 56
4931, 103978, 56
4932, 103639, 56
4933, 103432, 56
4934, 102969, 56
4935, 102657, 56
4936, 102267, 56
4937, 102026, 56
4938, 101745, 56
4939, 101585, 56
4940, 101258, 56
4941, 100996, 56
4942, 100616, 56
4943, 100306, 56
4944, 100038, 56
4945, 99734, 56
4946, 99492, 56
4947, 99338, 56
4948, 99114, 56
4949, 98881, 56
4950, 96287, 56
4951, 96516, 56
4952, 96483, 56
4953, 96691, 56
4954, 96902, 56
4955, 97110, 56
4956, 97127, 56
4957, 97243, 56
4958, 97400, 56
4959, 97588, 56
4960, 97622, 56
4961, 97435, 56
4962, 97856, 56
4963, 98007, 56
4964, 98239, 56
4965, 98460, 56
4966, 98615, 56
4967, 98812, 56
4968, 98883, 56
4969, 99222, 56
4970, 99314, 56
4971, 99532, 56
4972, 99880, 56
4973, 99946, 56
4974, 100266, 56
4975, 101024, 56
4976, 101283, 56
4977, 101738, 56
4978, 101944, 56
4979, 101800, 56
4980, 102092, 56
4981, 102395, 56
4982, 102651, 56
4983, 102942, 56
4984, 103424, 56
4985, 103691, 56
4986, 103891, 56
4987, 104268, 56
4988, 104567, 56
4989, 104872, 56
4990, 105508, 56
4991, 105432, 56
4992, 105401, 56
4993, 105430, 56
4994, 105302, 56
4995, 105145, 56
4996, 104965, 56
4997, 104541, 56
4998, 104131, 56
4999, 103539, 56
5000, 93240, 56
5001, 92716, 56
5002, 92751, 56
5003, 92663, 56
5004, 92531, 56
5005, 92448, 56
5006, 92045, 56
5007, 91942, 56
5008, 91858, 56
5009, 91679, 56
5010, 91566, 56
5011, 91559, 56
5012, 91617, 56
5013, 91440, 56
5014, 91280, 56
5015, 91312, 56
5016, 91238, 56
5017, 91466, 56
5018, 91166, 56
5019, 91065, 56
5020, 91073, 56
5021, 91082, 56
5022, 90933, 56
5023, 91111, 56
5024, 91221, 56
5025, 91222, 56
5026, 91334, 56
5027, 91321, 56
5028, 91388, 56
5029, 91387, 56
5030, 91561, 56
5031, 91513, 56
5032, 91288, 56
5033, 91599, 56
5034, 91728, 56
5035, 91795, 56
5036, 91965, 56
5037, 92024, 56
5038, 92037, 56
5039, 92204, 56
5040, 92187, 56
5041, 92336, 56
5042, 92533, 56
5043, 92723, 56
5044, 92857, 56
5045, 93164, 56
5046, 93255, 56
5047, 93470, 56
5048, 93586, 56
5049, 93750, 56
5050, 94250, 56
5051, 94230, 56
5052, 94442, 56
5053, 94783, 56
5054, 95082, 56
5055, 95249, 56
5056, 95677, 56
5057, 95662, 56
5058, 95982, 56
5059, 96209, 56
5060, 96426, 56
5061, 96854, 56
5062, 97105, 56
5063, 97382, 56
5064, 97591, 56
5065, 97621, 56
5066, 97835, 56
5067, 97768, 56
5068, 97674, 56
5069, 97373, 56
5070, 96928, 56
5071, 96519, 56
5072, 95977, 56
5073, 95466, 56
5074, 94820, 56
5075, 94264, 56
5076, 93671, 56
5077, 93144, 56
5078, 92443, 56
5079, 91906, 56
5080, 91330, 56
5081, 90697, 56
5082, 90257, 56
5083, 89613, 56
5084, 89234, 56
5085, 88618, 56
5086, 88144, 56
5087, 87748, 56
5088, 87067, 56
5089, 86437, 56
5090, 86013, 56
5091, 85624, 56
5092, 85020, 56
5093, 84586, 56
5094, 84055, 56
5095, 83786, 56
5096, 83364, 56
5097, 82901, 56
5098, 82513, 56
5099, 82059, 56
5100, 78562, 56
5101, 78335, 56
5102, 78130, 56
5103, 77850, 56
5104, 77813, 56
5105, 77469, 56
5106, 77238, 56
5107, 77043, 56
5108, 76997, 56
5109, 76847, 56
5110, 76758, 56
5111, 76546, 56
5112, 76493, 56
5113, 76499, 56
5114, 76113, 56
5115, 76103, 56
5116, 76086, 56
5117, 75885, 56
5118, 75970, 56
5119, 75874, 56
5120, 75876, 56
5121, 75846, 56
5122, 75625, 56
5123, 75957, 56
5124, 76011, 56
5125, 76060, 56
5126, 76043, 56
5127, 76068, 56
5128, 75945, 56
5129, 75942, 56
5130, 76061, 56
5131, 76101, 56
5132, 76055, 56
5133, 76249, 56
5134, 76401, 56
5135, 76527, 56
5136, 76516, 56
5137, 76576, 56
5138, 76749, 56
5139, 76700, 56
5140, 77015, 56
5141, 76897, 56
5142, 77018, 56
5143, 77359, 56
5144, 77563, 56
5145, 77440, 56
5146, 77656, 56
5147, 77774, 56
5148, 78025, 56
5149, 78107, 56
5150, 78496, 56
5151, 78636, 56
5152, 78705, 56
5153, 79128, 56
5154, 79300, 56
5155, 79339, 56
5156, 79560, 56
5157, 79896, 56
5158, 80143, 56
5159, 80385, 56
5160, 80694, 56
5161, 80967, 56
5162, 81057, 56
5163, 81281, 56
5164, 81689, 56
5165, 81961, 56
5166, 82079, 56
5167, 82162, 56
5168, 82102, 56
5169, 82122, 56
5170, 82031, 56
5171, 81615, 56
5172, 81230, 56
5173, 80681, 56
5174, 79996, 56
5175, 69201, 57
5176, 68862, 57
5177, 68358, 57
5178, 68182, 57
5179, 67976, 57
5180, 67503, 57
5181, 67363, 57
5182, 66942, 57
5183, 66750, 57
5184, 66575, 57
5185, 66153, 57
5186, 66140, 57
5187, 65964, 57
5188, 65692, 57
5189, 65715, 57
5190, 65417, 57
5191, 65263, 57
5192, 65218, 57
5193, 64926, 57
5194, 64931, 57
5195, 64862, 57
5196, 64933, 57
5197, 64849, 57
5198, 64976, 57
5199, 64862, 57
5200, 64813, 57
5201, 64846, 57
5202, 64801, 57
5203, 64839, 57
5204, 64756, 57
5205, 64894, 57
5206, 64941, 57
5207, 64991, 57
5208, 65242, 57
5209, 65108, 57
5210, 65266, 57
5211, 65238, 57
5212, 65582, 57
5213, 65664, 57
5214, 65762, 57
5215, 65974, 57
5216, 66026, 57
5217, 66121, 57
5218, 66275, 57
5219, 66638, 57
5220, 66664, 57
5221, 66915, 57
5222, 67366, 57
5223, 67568, 57
5224, 67665, 57
5225, 68045, 57
5226, 68048, 57
5227, 68334, 57
5228, 68709, 57
5229, 69001, 57
5230, 69198, 57
5231, 69269, 57
5232, 69657, 57
5233, 69919, 57
5234, 70301, 57
5235, 70734, 57
5236, 70828, 57
5237, 71103, 57
5238, 71316, 57
5239, 71550, 57
5240, 71926, 57
5241, 72199, 57
5242, 72558, 57
5243, 72868, 57
5244, 73145, 57
5245, 73141, 57
5246, 73253, 57
5247, 73146, 57
5248, 73015, 57
5249, 72628, 57
5250, 63576, 57
5251, 63088, 57
5252, 62870, 57
5253, 62831, 57
5254, 62504, 57
5255, 62331, 57
5256, 62329, 57
5257, 61984, 57
5258, 61722, 57
5259, 61565, 57
5260, 61255, 57
5261, 61049, 57
5262, 60682, 57
5263, 60718, 57
5264, 60488, 57
5265, 60359, 57
5266, 60287, 57
5267, 60222, 57
5268, 60130, 57
5269, 60139, 57
5270, 59999, 57
5271, 59929, 57
5272, 59910, 57
5273, 59865, 57
5274, 59959, 57
5275, 60049, 57
5276, 59954, 57
5277, 59863, 57
5278, 60166, 57
5279, 60202, 57
5280, 60250, 57
5281, 60357, 57
5282, 60365, 57
5283, 60418, 57
5284, 60559, 57
5285, 60535, 57
5286, 60790, 57
5287, 60983, 57
5288, 61276, 57
5289, 61435, 57
5290, 61456, 57
5291, 61635, 57
5292, 61851, 57
5293, 62211, 57
5294, 62356, 57
5295, 62512, 57
5296, 62811, 57
5297, 62920, 57
5298, 63182, 57
5299, 63377, 57
5300, 63466, 57
5301, 63761, 57
5302, 63908, 57
5303, 64122, 57
5304, 64413, 57
5305, 64614, 57
5306, 64964, 57
5307, 65095, 57
5308, 65443, 57
5309, 65946, 57
5310, 66134, 57
5311, 66308, 57
5312, 66702, 57
5313, 67412, 57
5314, 67412, 57
5315, 67739, 57
5316, 67907, 57
5317, 68175, 57
5318, 68597, 57
5319, 68829, 57
5320, 69012, 57
5321, 69607, 57
5322, 69995, 57
5323, 70528, 57
5324, 71136, 57
5325, 64076, 57
5326, 63695, 57
5327, 63147, 57
5328, 62732, 57
5329, 62621, 57
5330, 62083, 57
5331, 61692, 57
5332, 61315, 57
5333, 61151, 57
5334, 60623, 57
5335, 60503, 57
5336, 60196, 57
5337, 60095, 57
5338, 59828, 57
5339, 59456, 57
5340, 59230, 57
5341, 59162, 57
5342, 58941, 57
5343, 58586, 57
5344, 58401, 57
5345, 58215, 57
5346, 58003, 57
5347, 57893, 57
5348, 57843, 57
5349, 57796, 57
5350, 57691, 57
5351, 57575, 57
5352, 57447, 57
5353, 57367, 57
5354, 57113, 57
5355, 57303, 57
5356, 57340, 57
5357, 57422, 57
5358, 57434, 57
5359, 57335, 57
5360, 57367, 57
5361, 57590, 57
5362, 57602, 57
5363, 57777, 57
5364, 57945, 57
5365, 57925, 57
5366, 58297, 57
5367, 58178, 57
5368, 58396, 57
5369, 58385, 57
5370, 58619, 57
5371, 58793, 57
5372, 58978, 57
5373, 59183, 57
5374, 59506, 57
5375, 59564, 57
5376, 59665, 57
5377, 59803, 57
5378, 60219, 57
5379, 60495, 57
5380, 60891, 57
5381, 60930, 57
5382, 60943, 57
5383, 61302, 57
5384, 61666, 57
5385, 61830, 57
5386, 62327, 57
5387, 62446, 57
5388, 62995, 57
5389, 63056, 57
5390, 63338, 57
5391, 63784, 57
5392, 63997, 57
5393, 64470, 57
5394, 64776, 57
5395, 64812, 57
5396, 65332, 57
5397, 65744, 57
5398, 66041, 57
5399, 66357, 57
5400, 66716, 57
5401, 66943, 57
5402, 67427, 57
5403, 67745, 57
5404, 68278, 57
5405, 68453, 57
5406, 68967, 57
5407, 69080, 57
5408, 69632, 57
5409, 70175, 57
5410, 70313, 57
5411, 70764, 57
5412, 71222, 57
5413, 71605, 57
5414, 71978, 57
5415, 72316, 57
5416, 72830, 57
5417, 73029, 57
5418, 73340, 57
5419, 73741, 57
5420, 73447, 57
5421, 73345, 57
5422, 73088, 57
5423, 72688, 57
5424, 72386, 57
5425, 67225, 57
5426, 66763, 57
5427, 66490, 57
5428, 66274, 57
5429, 65827, 57
5430, 65644, 57
5431, 65216, 57
5432, 64801, 57
5433, 64650, 57
5434, 64257, 57
5435, 64256, 57
5436, 63906, 57
5437, 63619, 57
5438, 63629, 57
5439, 63253, 57
5440, 62993, 57
5441, 62711, 57
5442, 62505, 57
5443, 62247, 57
5444, 62023, 57
5445, 61855, 57
5446, 61744, 57
5447, 61656, 57
5448, 61406, 57
5449, 61531, 57
5450, 61443, 57
5451, 61348, 57
5452, 61451, 57
5453, 61329, 57
5454, 61341, 57
5455, 61203, 57
5456, 61433, 57
5457, 61299, 57
5458, 61425, 57
5459, 61548, 57
5460, 61462, 57
5461, 61616, 57
5462, 61690, 57
5463, 61772, 57
5464, 61781, 57
5465, 61849, 57
5466, 61870, 57
5467, 62054, 57
5468, 62151, 57
5469, 62322, 57
5470, 62533, 57
5471, 62813, 57
5472, 62969, 57
5473, 63215, 57
5474, 63485, 57
5475, 63965, 58
5476, 63935, 58
5477, 63985, 58
5478, 64359, 58
5479, 64483, 58
5480, 64640, 58
5481, 64821, 58
5482, 65178, 58
5483, 65481, 58
5484, 65927, 58
5485, 66188, 58
5486, 66229, 58
5487, 66679, 58
5488, 66859, 58
5489, 67178, 58
5490, 67419, 58
5491, 67816, 58
5492, 68119, 58
5493, 68453, 58
5494, 68783, 58
5495, 69115, 58
5496, 69545, 58
5497, 70084, 58
5498, 70190, 58
5499, 70742, 58
5500, 72651, 58
5501, 72346, 58
5502, 72056, 58
5503, 71877, 58
5504, 71510, 58
5505, 71192, 58
5506, 71176, 58
5507, 70623, 58
5508, 70638, 58
5509, 70497, 58
5510, 70360, 58
5511, 70173, 58
5512, 69968, 58
5513, 69890, 58
5514, 69858, 58
5515, 69739, 58
5516, 69739, 58
5517, 69621, 58
5518, 69555, 58
5519, 69360, 58
5520, 69312, 58
5521, 69184, 58
5522, 69108, 58
5523, 68995, 58
5524, 69180, 58
5525, 69148, 58
5526, 68944, 58
5527, 68943, 58
5528, 68883, 58
5529, 68835, 58
5530, 68978, 58
5531, 68967, 58
5532, 69057, 58
5533, 68999, 58
5534, 69172, 58
5535, 69332, 58
5536, 69369, 58
5537, 69557, 58
5538, 69574, 58
5539, 69824, 58
5540, 69890, 58
5541, 70033, 58
5542, 70204, 58
5543, 70468, 58
5544, 70657, 58
5545, 70709, 58
5546, 71054, 58
5547, 71047, 58
5548, 71347, 58
5549, 71467, 58
5550, 71918, 58
5551, 72200, 58
5552, 72431, 58
5553, 72592, 58
5554, 72943, 58
5555, 73278, 58
5556, 73336, 58
5557, 73718, 58
5558, 73829, 58
5559, 74182, 58
5560, 74618, 58
5561, 75004, 58
5562, 75213, 58
5563, 75483, 58
5564, 75838, 58
5565, 76157, 58
5566, 76650, 58
5567, 77033, 58
5568, 77315, 58
5569, 77724, 58
5570, 78016, 58
5571, 78422, 58
5572, 78597, 58
5573, 78956, 58
5574, 79369, 58
5575, 79223, 58
5576, 79064, 58
5577, 78910, 58
5578, 78590, 58
5579, 78283, 58
5580, 77960, 58
5581, 77643, 58
5582, 77428, 58
5583, 77084, 58
5584, 76965, 58
5585, 77723, 58
5586, 76887, 58
5587, 76791, 58
5588, 76393, 58
5589, 76330, 58
5590, 76045, 58
5591, 76084, 58
5592, 75951, 58
5593, 75838, 58
5594, 75701, 58
5595, 75401, 58
5596, 75468, 58
5597, 75430, 58
5598, 75186, 58
5599, 75216, 58
5600, 75133, 58
5601, 75081, 58
5602, 75096, 58
5603, 74991, 58
5604, 75145, 58
5605, 75013, 58
5606, 75194, 58
5607, 75421, 58
5608, 75454, 58
5609, 75717, 58
5610, 75658, 58
5611, 75865, 58
5612, 75848, 58
5613, 76061, 58
5614, 76064, 58
5615, 76109, 58
5616, 76517, 58
5617, 76429, 58
5618, 76824, 58
5619, 76864, 58
5620, 77202, 58
5621, 77496, 58
5622, 77540, 58
5623, 77793, 58
5624, 77924, 58
5625, 78079, 60
5626, 78338, 60
5627, 78519, 60
5628, 78650, 60
5629, 79160, 60
5630, 79418, 60
5631, 79636, 60
5632, 79833, 60
5633, 80164, 60
5634, 80429, 60
5635, 80661, 60
5636, 80941, 60
5637, 81167, 60
5638, 81510, 60
5639, 82102, 60
5640, 82322, 60
5641, 82481, 60
5642, 82749, 60
5643, 83177, 60
5644, 83568, 60
5645, 83904, 60
5646, 84357, 60
5647, 84724, 60
5648, 84874, 60
5649, 85589, 60
5650, 84677, 60
5651, 84284, 60
5652, 84051, 60
5653, 83680, 60
5654, 83241, 60
5655, 82820, 60
5656, 82336, 60
5657, 81973, 60
5658, 81899, 60
5659, 81608, 60
5660, 81317, 60
5661, 80921, 60
5662, 80546, 60
5663, 80546, 60
5664, 80325, 60
5665, 80111, 60
5666, 80124, 60
5667, 79834, 60
5668, 79410, 60
5669, 79289, 60
5670, 79234, 60
5671, 78978, 60
5672, 78764, 60
5673, 78514, 60
5674, 78375, 60
5675, 78380, 60
5676, 78198, 60
5677, 78233, 60
5678, 78151, 60
5679, 77872, 60
5680, 77708, 60
5681, 77729, 60
5682, 77493, 60
5683, 77498, 60
5684, 77401, 60
5685, 77385, 60
5686, 77275, 60
5687, 77375, 60
5688, 77338, 60
5689, 77436, 60
5690, 77548, 60
5691, 77680, 60
5692, 77692, 60
5693, 77666, 60
5694, 77799, 60
5695, 77959, 60
5696, 77990, 60
5697, 77980, 60
5698, 77930, 60
5699, 78039, 60
5700, 78348, 60
5701, 78377, 60
5702, 78652, 60
5703, 78751, 60
5704, 78863, 60
5705, 79052, 60
5706, 79207, 60
5707, 79363, 60
5708, 79638, 60
5709, 79750, 60
5710, 79855, 60
5711, 80050, 60
5712, 80379, 60
5713, 80380, 60
5714, 80769, 60
5715, 81071, 60
5716, 81192, 60
5717, 81418, 60
5718, 81724, 60
5719, 81864, 60
5720, 82163, 60
5721, 82350, 60
5722, 82906, 60
5723, 83076, 60
5724, 83331, 60
5725, 86238, 60
5726, 86150, 60
5727, 86082, 60
5728, 85946, 60
5729, 85678, 60
5730, 85030, 60
5731, 84787, 60
5732, 84537, 60
5733, 83792, 60
5734, 83267, 60
5735, 83068, 60
5736, 82519, 60
5737, 82162, 60
5738, 81892, 60
5739, 81539, 60
5740, 81078, 60
5741, 80769, 60
5742, 80494, 60
5743, 80094, 60
5744, 79967, 60
5745, 79475, 60
5746, 79188, 60
5747, 78974, 60
5748, 78833, 60
5749, 78266, 60
5750, 77874, 60
5751, 77765, 60
5752, 77498, 60
5753, 77292, 60
5754, 77109, 60
5755, 76858, 60
5756, 76896, 60
5757, 76791, 60
5758, 76399, 60
5759, 76477, 60
5760, 76091, 60
5761, 76285, 60
5762, 76262, 60
5763, 76082, 60
5764, 75829, 60
5765, 75933, 60
5766, 75825, 60
5767, 75752, 60
5768, 75868, 60
5769, 75805, 60
5770, 75971, 60
5771, 75854, 60
5772, 76013, 60
5773, 76077, 60
5774, 76158, 60
5775, 76198, 60
5776, 76601, 60
5777, 76337, 60
5778, 76487, 60
5779, 76733, 60
5780, 76774, 60
5781, 77005, 60
5782, 77126, 60
5783, 77284, 60
5784, 77466, 60
5785, 77739, 60
5786, 77725, 60
5787, 77826, 60
5788, 78070, 60
5789, 78464, 60
5790, 78511, 60
5791, 78735, 60
5792, 79012, 60
5793, 79382, 60
5794, 79581, 60
5795, 79669, 60
5796, 79920, 60
5797, 80409, 60
5798, 80632, 60
5799, 80904, 60
5800, 78497, 60
5801, 78275, 60
5802, 77871, 60
5803, 77548, 60
5804, 77033, 60
5805, 76829, 60
5806, 76555, 60
5807, 76023, 60
5808, 75867, 60
5809, 75685, 60
5810, 75523, 60
5811, 75409, 60
5812, 75133, 60
5813, 75103, 60
5814, 75003, 60
5815, 74852, 60
5816, 74743, 60
5817, 74744, 60
5818, 74653, 60
5819, 74539, 60
5820, 74449, 60
5821, 74407, 60
5822, 74311, 60
5823, 74387, 60
5824, 74233, 60
5825, 74199, 60
5826, 74259, 60
5827, 74129, 60
5828, 74162, 60
5829, 74087, 60
5830, 74181, 60
5831, 74390, 60
5832, 74512, 60
5833, 74706, 60
5834, 74925, 60
5835, 74814, 60
5836, 74886, 60
5837, 75202, 60
5838, 75487, 60
5839, 75573, 60
5840, 75776, 60
5841, 75840, 60
5842, 75881, 60
5843, 76068, 60
5844, 76300, 60
5845, 76594, 60
5846, 76869, 60
5847, 77059, 60
5848, 77326, 60
5849, 77571, 60
5850, 77718, 60
5851, 77953, 60
5852, 78436, 60
5853, 78783, 60
5854, 78716, 60
5855, 78964, 60
5856, 79245, 60
5857, 79641, 60
5858, 79815, 60
5859, 80023, 60
5860, 80607, 60
5861, 80911, 60
5862, 81132, 60
5863, 81365, 60
5864, 81620, 60
5865, 82007, 60
5866, 82480, 60
5867, 82917, 60
5868, 83117, 60
5869, 83416, 60
5870, 83712, 60
5871, 84041, 60
5872, 84337, 60
5873, 84620, 60
5874, 84765, 60
5875, 76218, 60
5876, 76019, 60
5877, 75732, 60
5878, 75604, 60
5879, 75727, 60
5880, 75587, 60
5881, 75600, 60
5882, 75451, 60
5883, 75313, 60
5884, 75372, 60
5885, 75356, 60
5886, 75428, 60
5887, 75311, 60
5888, 75404, 60
5889, 75438, 60
5890, 75528, 60
5891, 75451, 60
5892, 75751, 60
5893, 75574, 60
5894, 75764, 60
5895, 75780, 60
5896, 75902, 60
5897, 76121, 60
5898, 76519, 60
5899, 76252, 60
5900, 77748, 60
5901, 78075, 60
5902, 78284, 60
5903, 78406, 60
5904, 78690, 60
5905, 78953, 60
5906, 79183, 60
5907, 79472, 60
5908, 79490, 60
5909, 79785, 60
5910, 80008, 60
5911, 80233, 60
5912, 80504, 60
5913, 80871, 60
5914, 81222, 60
5915, 81510, 60
5916, 81693, 60
5917, 81718, 60
5918, 82074, 60
5919, 82454, 60
5920, 82660, 60
5921, 83180, 60
5922, 83417, 60
5923, 83720, 60
5924, 84118, 60
5925, 84467, 60
5926, 84743, 60
5927, 85240, 60
5928, 85484, 60
5929, 85796, 60
5930, 86222, 60
5931, 86720, 60
5932, 87021, 60
5933, 87249, 60
5934, 87720, 60
5935, 88112, 60
5936, 88367, 60
5937, 88795, 60
5938, 89147, 60
5939, 89669, 60
5940, 90142, 60
5941, 90445, 60
5942, 90733, 60
5943, 91272, 60
5944, 91834, 60
5945, 92029, 60
5946, 92558, 60
5947, 93020, 60
5948, 93247, 60
5949, 93338, 60
5950, 86665, 59
5951, 86518, 59
5952, 86289, 59
5953, 86006, 59
5954, 85752, 59
5955, 85756, 59
5956, 85477, 59
5957, 85472, 59
5958, 85288, 59
5959, 85258, 59
5960, 84913, 59
5961, 84924, 59
5962, 84982, 59
5963, 84906, 59
5964, 84937, 59
5965, 84881, 59
5966, 84678, 59
5967, 84808, 59
5968, 84718, 59
5969, 84772, 59
5970, 84867, 59
5971, 84776, 59
5972, 84758, 59
5973, 84914, 59
5974, 84779, 59
5975, 85050, 59
5976, 85071, 59
5977, 85137, 59
5978, 85340, 59
5979, 85422, 59
5980, 85613, 59
5981, 85680, 59
5982, 85895, 59
5983, 86179, 59
5984, 86347, 59
5985, 86730, 59
5986, 86716, 59
5987, 86789, 59
5988, 87101, 59
5989, 87253, 59
5990, 87480, 59
5991, 87607, 59
5992, 88093, 59
5993, 88156, 59
5994, 88561, 59
5995, 88822, 59
5996, 88914, 59
5997, 89002, 59
5998, 89253, 59
5999, 89462, 59
6000, 89586, 59
6001, 89955, 59
6002, 90266, 59
6003, 90418, 59
6004, 90751, 59
6005, 90906, 59
6006, 91333, 59
6007, 91560, 59
6008, 91838, 59
6009, 91985, 59
6010, 92270, 59
6011, 92659, 59
6012, 92939, 59
6013, 93352, 59
6014, 93486, 59
6015, 93855, 59
6016, 94259, 59
6017, 94461, 59
6018, 94852, 59
6019, 95333, 59
6020, 95473, 59
6021, 95836, 59
6022, 96123, 59
6023, 96395, 59
6024, 96910, 59
6025, 98441, 59
6026, 97796, 59
6027, 97880, 59
6028, 97484, 59
6029, 97217, 59
6030, 96776, 59
6031, 96598, 59
6032, 96402, 59
6033, 96258, 59
6034, 95865, 59
6035, 95871, 59
6036, 95850, 59
6037, 95604, 59
6038, 95393, 59
6039, 95540, 59
6040, 95522, 59
6041, 95384, 59
6042, 95342, 59
6043, 95381, 59
6044, 95369, 59
6045, 95397, 59
6046, 95357, 59
6047, 95471, 59
6048, 95433, 59
6049, 95438, 59
6050, 95400, 59
6051, 95514, 59
6052, 95516, 59
6053, 95666, 59
6054, 95860, 59
6055, 95761, 59
6056, 96188, 59
6057, 96259, 59
6058, 96319, 59
6059, 96386, 59
6060, 96624, 59
6061, 96900, 59
6062, 97112, 59
6063, 97341, 59
6064, 97488, 59
6065, 97664, 59
6066, 97867, 59
6067, 98007, 59
6068, 98289, 59
6069, 98436, 59
6070, 98668, 59
6071, 98889, 59
6072, 99033, 59
6073, 99228, 59
6074, 99687, 59
6075, 99746, 59
6076, 100011, 59
6077, 100359, 59
6078, 100555, 59
6079, 100954, 59
6080, 101304, 59
6081, 101515, 59
6082, 101673, 59
6083, 101936, 59
6084, 102379, 59
6085, 102701, 59
6086, 102890, 59
6087, 103306, 59
6088, 103691, 59
6089, 103709, 59
6090, 104198, 59
6091, 104376, 59
6092, 104815, 59
6093, 105400, 59
6094, 105522, 59
6095, 106064, 59
6096, 106453, 59
6097, 106522, 59
6098, 106919, 59
6099, 107462, 59
6100, 112980, 56
6101, 112878, 56
6102, 112310, 56
6103, 112000, 56
6104, 111638, 56
6105, 111272, 56
6106, 110917, 56
6107, 110609, 56
6108, 110391, 56
6109, 109757, 56
6110, 109581, 56
6111, 109486, 56
6112, 109491, 56
6113, 109356, 56
6114, 108739, 56
6115, 108424, 56
6116, 108141, 56
6117, 107986, 56
6118, 107792, 56
6119, 107326, 56
6120, 107313, 56
6121, 107431, 56
6122, 107361, 56
6123, 107167, 56
6124, 107169, 56
6125, 107043, 56
6126, 106982, 56
6127, 106770, 56
6128, 106724, 56
6129, 106580, 56
6130, 106852, 56
6131, 106681, 56
6132, 106772, 56
6133, 106838, 56
6134, 106680, 56
6135, 106669, 56
6136, 106651, 56
6137, 106791, 56
6138, 106877, 56
6139, 106934, 56
6140, 107076, 56
6141, 107062, 56
6142, 107186, 56
6143, 107512, 56
6144, 107397, 56
6145, 107688, 56
6146, 108007, 56
6147, 108109, 56
6148, 108270, 56
6149, 108584, 56
6150, 108875, 56
6151, 108888, 56
6152, 108921, 56
6153, 109131, 56
6154, 109348, 56
6155, 109748, 56
6156, 109915, 56
6157, 110037, 56
6158, 110211, 56
6159, 110609, 56
6160, 110713, 56
6161, 110979, 56
6162, 111174, 56
6163, 111388, 56
6164, 111643, 56
6165, 111975, 56
6166, 112335, 56
6167, 112694, 56
6168, 112830, 56
6169, 113088, 56
6170, 113288, 56
6171, 113702, 56
6172, 113945, 56
6173, 114172, 56
6174, 114390, 56
6175, 122293, 56
6176, 122628, 56
6177, 123215, 56
6178, 123518, 56
6179, 124021, 56
6180, 124389, 56
6181, 124658, 56
6182, 125073, 56
6183, 125425, 56
6184, 125661, 56
6185, 125835, 56
6186, 125817, 56
6187, 125804, 56
6188, 125475, 56
6189, 125586, 56
6190, 125201, 56
6191, 125070, 56
6192, 124666, 56
6193, 124424, 56
6194, 124054, 56
6195, 123746, 56
6196, 123304, 56
6197, 122947, 56
6198, 122753, 56
6199, 122491, 56
6200, 121677, 56
6201, 121713, 56
6202, 121339, 56
6203, 120982, 56
6204, 120895, 56
6205, 120615, 56
6206, 120396, 56
6207, 120153, 56
6208, 119896, 56
6209, 119807, 56
6210, 119724, 56
6211, 119588, 56
6212, 119605, 56
6213, 119493, 56
6214, 119272, 56
6215, 119201, 56
6216, 119143, 56
6217, 119010, 56
6218, 119070, 56
6219, 119088, 56
6220, 119039, 56
6221, 118974, 56
6222, 118848, 56
6223, 119056, 56
6224, 118894, 56
6225, 118975, 56
6226, 118929, 56
6227, 119206, 56
6228, 118938, 56
6229, 119017, 56
6230, 119200, 56
6231, 119421, 56
6232, 119405, 56
6233, 119611, 56
6234, 119832, 56
6235, 119738, 56
6236, 119905, 56
6237, 120189, 56
6238, 120263, 56
6239, 120644, 56
6240, 120756, 56
6241, 120844, 56
6242, 121000, 56
6243, 121284, 56
6244, 121388, 56
6245, 121562, 56
6246, 121682, 56
6247, 121912, 56
6248, 122157, 56
6249, 122507, 56
6250, 127501, 54
6251, 127843, 54
6252, 128055, 54
6253, 128214, 54
6254, 128747, 54
6255, 128982, 54
6256, 129227, 54
6257, 129709, 54
6258, 129846, 54
6259, 130231, 54
6260, 130440, 54
6261, 130809, 54
6262, 131190, 54
6263, 131625, 54
6264, 131908, 54
6265, 132232, 54
6266, 132558, 54
6267, 132795, 54
6268, 133211, 54
6269, 133683, 54
6270, 133947, 54
6271, 134138, 54
6272, 134655, 54
6273, 134937, 54
6274, 135244, 54
6275, 136251, 54
6276, 136684, 54
6277, 136848, 54
6278, 136939, 54
6279, 137242, 54
6280, 137233, 54
6281, 137088, 54
6282, 136938, 54
6283, 136506, 54
6284, 136320, 54
6285, 136181, 54
6286, 135743, 54
6287, 135364, 54
6288, 135153, 54
6289, 134921, 54
6290, 134588, 54
6291, 134182, 54
6292, 133946, 54
6293, 133853, 54
6294, 133391, 54
6295, 133383, 54
6296, 133125, 54
6297, 133001, 54
6298, 132730, 54
6299, 132854, 54
6300, 132554, 54
6301, 132578, 54
6302, 131950, 54
6303, 131861, 54
6304, 131965, 54
6305, 131605, 54
6306, 131646, 54
6307, 131483, 54
6308, 131536, 54
6309, 131336, 54
6310, 131409, 54
6311, 131085, 54
6312, 131023, 54
6313, 131178, 54
6314, 131128, 54
6315, 130969, 54
6316, 130899, 54
6317, 131099, 54
6318, 131002, 54
6319, 131096, 54
6320, 130916, 54
6321, 130792, 54
6322, 130780, 54
6323, 131118, 54
6324, 130852, 54
6325, 133849, 54
6326, 134027, 54
6327, 134195, 54
6328, 134360, 54
6329, 134381, 54
6330, 134816, 54
6331, 135065, 54
6332, 135492, 54
6333, 135472, 54
6334, 135536, 54
6335, 135782, 54
6336, 136294, 54
6337, 136535, 54
6338, 136687, 54
6339, 136857, 54
6340, 137159, 54
6341, 137418, 54
6342, 137840, 54
6343, 138157, 54
6344, 138401, 54
6345, 138852, 54
6346, 139053, 54
6347, 139150, 54
6348, 139649, 54
6349, 139708, 54
6350, 140192, 54
6351, 140435, 54
6352, 140928, 54
6353, 141113, 54
6354, 141377, 54
6355, 141760, 54
6356, 142159, 54
6357, 142427, 54
6358, 142820, 54
6359, 143214, 54
6360, 143582, 54
6361, 143911, 54
6362, 144116, 54
6363, 144476, 54
6364, 144743, 54
6365, 145199, 54
6366, 145493, 54
6367, 145733, 54
6368, 145817, 54
6369, 145663, 54
6370, 145618, 54
6371, 145486, 54
6372, 145205, 54
6373, 144774, 54
6374, 144679, 54
6375, 144283, 54
6376, 143907, 54
6377, 143788, 54
6378, 143399, 54
6379, 143232, 54
6380, 142939, 54
6381, 142722, 54
6382, 142526, 54
6383, 142467, 54
6384, 142328, 54
6385, 142107, 54
6386, 141945, 54
6387, 141723, 54
6388, 141719, 54
6389, 141676, 54
6390, 141575, 54
6391, 141323, 54
6392, 141331, 54
6393, 141282, 54
6394, 141270, 54
6395, 141153, 54
6396, 141060, 54
6397, 141149, 54
6398, 141163, 54
6399, 141105, 54
6400, 143177, 54
6401, 143298, 54
6402, 143344, 54
6403, 143688, 54
6404, 143827, 54
6405, 144053, 54
6406, 144417, 54
6407, 144655, 54
6408, 144648, 54
6409, 144983, 54
6410, 145162, 54
6411, 145517, 54
6412, 145551, 54
6413, 145788, 54
6414, 146100, 54
6415, 146494, 54
6416, 146494, 54
6417, 146713, 54
6418, 147075, 54
6419, 147380, 54
6420, 147735, 54
6421, 147714, 54
6422, 148244, 54
6423, 148561, 54
6424, 148684, 54
6425, 149042, 54
6426, 149364, 54
6427, 149832, 54
6428, 149975, 54
6429, 150220, 54
6430, 150773, 54
6431, 150865, 54
6432, 151361, 54
6433, 151775, 54
6434, 152000, 54
6435, 152334, 54
6436, 152692, 54
6437, 152943, 54
6438, 153464, 54
6439, 153824, 54
6440, 154069, 54
6441, 154300, 54
6442, 154925, 54
6443, 155281, 54
6444, 155503, 54
6445, 155935, 54
6446, 156138, 54
6447, 156235, 54
6448, 156508, 54
6449, 156750, 54
6450, 156591, 54
6451, 156538, 54
6452, 156350, 54
6453, 156019, 54
6454, 155616, 54
6455, 155196, 54
6456, 155051, 54
6457, 154701, 54
6458, 154040, 54
6459, 153692, 54
6460, 153328, 54
6461, 153169, 54
6462, 152686, 54
6463, 152488, 54
6464, 152182, 54
6465, 152021, 54
6466, 151989, 54
6467, 151578, 54
6468, 151277, 54
6469, 150982, 54
6470, 150683, 54
6471, 150593, 54
6472, 150477, 54
6473, 150203, 54
6474, 150033, 54
6475, 149096, 54
6476, 148916, 54
6477, 148990, 54
6478, 148914, 54
6479, 148948, 54
6480, 149236, 54
6481, 149168, 54
6482, 149525, 54
6483, 149592, 54
6484, 149726, 54
6485, 149711, 54
6486, 149891, 54
6487, 150063, 54
6488, 150266, 54
6489, 150415, 54
6490, 150440, 54
6491, 150582, 54
6492, 150567, 54
6493, 150715, 54
6494, 151007, 54
6495, 151142, 54
6496, 151332, 54
6497, 151602, 54
6498, 151911, 54
6499, 151813, 54
6500, 152206, 54
6501, 152399, 54
6502, 152378, 54
6503, 152968, 54
6504, 153048, 54
6505, 153358, 54
6506, 153603, 54
6507, 153748, 54
6508, 154068, 54
6509, 154286, 54
6510, 154496, 54
6511, 154804, 54
6512, 155052, 54
6513, 155256, 54
6514, 155676, 54
6515, 155796, 54
6516, 156058, 54
6517, 156485, 54
6518, 156695, 54
6519, 157020, 54
6520, 157225, 54
6521, 157416, 54
6522, 157764, 54
6523, 158106, 54
6524, 158579, 54
6525, 158685, 54
6526, 159020, 54
6527, 159135, 54
6528, 159636, 54
6529, 159754, 54
6530, 160268, 54
6531, 160445, 54
6532, 160694, 54
6533, 161000, 54
6534, 161234, 54
6535, 161481, 54
6536, 162012, 54
6537, 162285, 54
6538, 162698, 54
6539, 162838, 54
6540, 162801, 54
6541, 162747, 54
6542, 162808, 54
6543, 162408, 54
6544, 162246, 54
6545, 161871, 54
6546, 161419, 54
6547, 160989, 54
6548, 160379, 54
6549, 160026, 54
6550, 152886, 54
6551, 152779, 54
6552, 152466, 54
6553, 152450, 54
6554, 152216, 54
6555, 152087, 54
6556, 151943, 54
6557, 151854, 54
6558, 151741, 54
6559, 151520, 54
6560, 151545, 54
6561, 151524, 54
6562, 151298, 54
6563, 151192, 54
6564, 151214, 54
6565, 151050, 54
6566, 150987, 54
6567, 151102, 54
6568, 151102, 54
6569, 151213, 54
6570, 151087, 54
6571, 151135, 54
6572, 151261, 54
6573, 151112, 54
6574, 151177, 54
6575, 151331, 54
6576, 151326, 54
6577, 151303, 54
6578, 151385, 54
6579, 151478, 54
6580, 151402, 54
6581, 151345, 54
6582, 151547, 54
6583, 151796, 54
6584, 151862, 54
6585, 151919, 54
6586, 152119, 54
6587, 152191, 54
6588, 152435, 54
6589, 152482, 54
6590, 152378, 54
6591, 152583, 54
6592, 152777, 54
6593, 152736, 54
6594, 152841, 54
6595, 153014, 54
6596, 152979, 54
6597, 153372, 54
6598, 153548, 54
6599, 153831, 54
6600, 154007, 54
6601, 154022, 54
6602, 154312, 54
6603, 154583, 54
6604, 154567, 54
6605, 154740, 54
6606, 154860, 54
6607, 155171, 54
6608, 155523, 54
6609, 155620, 54
6610, 155941, 54
6611, 156279, 54
6612, 156425, 54
6613, 156589, 54
6614, 156952, 54
6615, 157209, 54
6616, 157695, 54
6617, 157894, 54
6618, 157897, 54
6619, 158190, 54
6620, 158222, 54
6621, 158636, 54
6622, 158697, 54
6623, 159042, 54
6624, 159423, 54
6625, 159553, 54
6626, 159764, 54
6627, 160142, 54
6628, 160204, 54
6629, 159963, 54
6630, 159713, 54
6631, 159700, 54
6632, 159244, 54
6633, 158579, 54
6634, 158133, 54
6635, 157751, 54
6636, 157145, 54
6637, 156557, 54
6638, 156101, 54
6639, 155567, 54
6640, 155332, 54
6641, 154965, 54
6642, 154545, 54
6643, 154079, 54
6644, 153787, 54
6645, 153419, 54
6646, 153018, 54
6647, 152765, 54
6648, 152434, 54
6649, 152043, 54
6650, 149533, 54
6651, 149338, 54
6652, 149167, 54
6653, 148882, 54
6654, 148724, 54
6655, 148623, 54
6656, 148620, 54
6657, 148410, 54
6658, 148390, 54
6659, 148118, 54
6660, 148115, 54
6661, 148205, 54
6662, 148136, 54
6663, 148086, 54
6664, 148255, 54
6665, 148237, 54
6666, 148144, 54
6667, 148243, 54
6668, 148281, 54
6669, 148287, 54
6670, 148409, 54
6671, 148572, 54
6672, 148613, 54
6673, 148607, 54
6674, 148632, 54
6675, 148767, 54
6676, 148852, 54
6677, 149012, 54
6678, 148891, 54
6679, 148893, 54
6680, 149054, 54
6681, 149240, 54
6682, 149168, 54
6683, 149189, 54
6684, 149429, 54
6685, 149543, 54
6686, 149615, 54
6687, 149833, 54
6688, 150053, 54
6689, 150258, 54
6690, 150353, 54
6691, 150457, 54
6692, 150542, 54
6693, 150757, 54
6694, 151034, 54
6695, 151083, 54
6696, 151331, 54
6697, 151603, 54
6698, 151718, 54
6699, 152059, 54
6700, 152379, 54
6701, 152311, 54
6702, 152797, 54
6703, 152937, 54
6704, 153236, 54
6705, 153341, 54
6706, 153643, 54
6707, 153836, 54
6708, 153903, 54
6709, 154230, 54
6710, 154674, 54
6711, 154729, 54
6712, 155308, 54
6713, 155865, 54
6714, 155956, 54
6715, 156025, 54
6716, 156294, 54
6717, 156264, 54
6718, 156293, 54
6719, 156068, 54
6720, 156002, 54
6721, 155575, 54
6722, 155060, 54
6723, 154546, 54
6724, 154124, 54
6725, 144558, 55
6726, 144329, 55
6727, 144046, 55
6728, 143699, 55
6729, 143398, 55
6730, 143411, 55
6731, 143266, 55
6732, 142901, 55
6733, 142927, 55
6734, 142681, 55
6735, 142582, 55
6736, 142405, 55
6737, 142494, 55
6738, 142222, 55
6739, 142137, 55
6740, 142093, 55
6741, 141930, 55
6742, 142191, 55
6743, 141994, 55
6744, 142026, 55
6745, 142103, 55
6746, 142006, 55
6747, 142052, 55
6748, 142077, 55
6749, 142138, 55
6750, 142209, 55
6751, 142371, 55
6752, 142246, 55
6753, 142255, 55
6754, 142530, 55
6755, 142684, 55
6756, 142688, 55
6757, 142650, 55
6758, 142531, 55
6759, 142782, 55
6760, 142988, 55
6761, 143228, 55
6762, 143191, 55
6763, 143422, 55
6764, 143715, 55
6765, 143834, 55
6766, 143677, 55
6767, 143849, 55
6768, 143779, 55
6769, 144074, 55
6770, 144381, 55
6771, 144413, 55
6772, 144557, 55
6773, 144881, 55
6774, 145115, 55
6775, 145180, 55
6776, 145307, 55
6777, 145419, 55
6778, 145679, 55
6779, 146002, 55
6780, 146189, 55
6781, 146315, 55
6782, 146619, 55
6783, 146735, 55
6784, 146990, 55
6785, 147437, 55
6786, 147803, 55
6787, 147805, 55
6788, 148042, 55
6789, 148152, 55
6790, 148632, 55
6791, 148669, 55
6792, 149123, 55
6793, 149287, 55
6794, 149790, 55
6795, 149962, 55
6796, 150209, 55
6797, 150685, 55
6798, 150769, 55
6799, 150993, 55
6800, 142764, 55
6801, 142480, 55
6802, 142010, 55
6803, 141698, 55
6804, 141344, 55
6805, 140899, 55
6806, 140506, 55
6807, 140147, 55
6808, 139879, 55
6809, 139687, 55
6810, 139406, 55
6811, 139382, 55
6812, 139050, 55
6813, 138717, 55
6814, 138435, 55
6815, 138235, 55
6816, 138087, 55
6817, 137824, 55
6818, 137435, 55
6819, 137286, 55
6820, 137067, 55
6821, 136954, 55
6822, 136716, 55
6823, 136616, 55
6824, 136605, 55
6825, 136478, 55
6826, 136292, 55
6827, 136119, 55
6828, 136217, 55
6829, 136103, 55
6830, 136080, 55
6831, 135897, 55
6832, 135915, 55
6833, 135797, 55
6834, 135803, 55
6835, 135808, 55
6836, 135658, 55
6837, 135693, 55
6838, 135743, 55
6839, 135850, 55
6840, 135862, 55
6841, 135793, 55
6842, 135859, 55
6843, 135999, 55
6844, 136112, 55
6845, 136141, 55
6846, 136134, 55
6847, 136069, 55
6848, 136078, 55
6849, 136229, 55
6850, 136302, 55
6851, 136504, 55
6852, 136563, 55
6853, 136462, 55
6854, 136482, 55
6855, 136725, 55
6856, 137067, 55
6857, 137162, 55
6858, 137380, 55
6859, 137405, 55
6860, 137653, 55
6861, 137791, 55
6862, 137818, 55
6863, 137919, 55
6864, 138095, 55
6865, 138487, 55
6866, 138543, 55
6867, 138619, 55
6868, 138966, 55
6869, 139214, 55
6870, 139306, 55
6871, 139460, 55
6872, 139456, 55
6873, 139858, 55
6874, 140294, 55
6875, 140923, 55
6876, 140203, 55
6877, 139630, 55
6878, 139203, 55
6879, 138594, 55
6880, 138076, 55
6881, 137752, 55
6882, 137381, 55
6883, 136889, 55
6884, 136420, 55
6885, 135863, 55
6886, 135489, 55
6887, 135272, 55
6888, 134910, 55
6889, 134581, 55
6890, 134064, 55
6891, 133800, 55
6892, 133578, 55
6893, 133207, 55
6894, 132919, 55
6895, 132655, 55
6896, 132267, 55
6897, 132101, 55
6898, 131913, 55
6899, 131665, 55
6900, 131368, 55
6901, 131101, 55
6902, 130689, 55
6903, 130559, 55
6904, 130431, 55
6905, 130159, 55
6906, 129876, 55
6907, 129978, 55
6908, 129587, 55
6909, 129595, 55
6910, 129167, 55
6911, 129356, 55
6912, 128971, 55
6913, 128835, 55
6914, 128605, 55
6915, 128767, 55
6916, 128595, 55
6917, 128550, 55
6918, 128262, 55
6919, 128376, 55
6920, 128294, 55
6921, 128302, 55
6922, 128426, 55
6923, 128216, 55
6924, 128314, 55
6925, 128248, 55
6926, 128253, 55
6927, 128179, 55
6928, 128512, 55
6929, 128266, 55
6930, 128552, 55
6931, 128360, 55
6932, 128428, 55
6933, 128607, 55
6934, 128459, 55
6935, 128748, 55
6936, 128684, 55
6937, 128724, 55
6938, 129010, 55
6939, 128883, 55
6940, 129111, 55
6941, 129105, 55
6942, 129024, 55
6943, 129215, 55
6944, 129656, 55
6945, 129815, 55
6946, 129832, 55
6947, 129992, 55
6948, 130146, 55
6949, 130245, 55
6950, 135443, 55
6951, 135911, 55
6952, 136182, 55
6953, 136303, 55
6954, 136578, 55
6955, 137013, 55
6956, 137235, 55
6957, 137099, 55
6958, 137214, 55
6959, 137229, 55
6960, 136760, 55
6961, 136467, 55
6962, 135930, 55
6963, 135507, 55
6964, 135074, 55
6965, 134308, 55
6966, 133725, 55
6967, 133298, 55
6968, 132735, 55
6969, 132157, 55
6970, 131647, 55
6971, 130945, 55
6972, 130663, 55
6973, 130189, 55
6974, 129641, 55
6975, 129342, 55
6976, 128946, 55
6977, 128581, 55
6978, 128122, 55
6979, 127747, 55
6980, 127392, 55
6981, 126910, 55
6982, 126717, 55
6983, 126316, 55
6984, 126033, 55
6985, 125680, 55
6986, 125298, 55
6987, 125015, 55
6988, 125007, 55
6989, 124638, 55
6990, 124165, 55
6991, 123948, 55
6992, 123649, 55
6993, 123384, 55
6994, 122966, 55
6995, 122854, 55
6996, 122769, 55
6997, 122445, 55
6998, 122235, 55
6999, 121753, 55
7000, 121510, 55
7001, 121394, 55
7002, 121169, 55
7003, 121258, 55
7004, 121035, 55
7005, 120811, 55
7006, 120623, 55
7007, 120613, 55
7008, 120379, 55
7009, 120410, 55
7010, 120326, 55
7011, 120373, 55
7012, 120180, 55
7013, 120051, 55
7014, 120015, 55
7015, 120038, 55
7016, 120033, 55
7017, 119983, 55
7018, 120121, 55
7019, 120074, 55
7020, 119691, 55
7021, 119757, 55
7022, 119892, 55
7023, 119825, 55
7024, 119834, 55
7025, 122653, 55
7026, 122660, 55
7027, 123024, 55
7028, 123183, 55
7029, 123478, 55
7030, 123689, 55
7031, 123841, 55
7032, 124006, 55
7033, 124304, 55
7034, 124579, 55
7035, 124864, 55
7036, 125249, 55
7037, 125462, 55
7038, 125704, 55
7039, 125820, 55
7040, 125933, 55
7041, 125918, 55
7042, 125806, 55
7043, 125441, 55
7044, 125189, 55
7045, 124194, 55
7046, 124194, 55
7047, 123713, 55
7048, 122968, 55
7049, 122331, 55
7050, 121683, 55
7051, 121276, 55
7052, 120769, 55
7053, 120292, 55
7054, 119796, 55
7055, 119350, 55
7056, 118777, 55
7057, 118425, 55
7058, 118133, 55
7059, 117734, 55
7060, 117330, 55
7061, 116969, 55
7062, 116623, 55
7063, 116212, 55
7064, 115866, 55
7065, 115591, 55
7066, 115603, 55
7067, 115165, 55
7068, 114871, 55
7069, 114637, 55
7070, 114449, 55
7071, 114217, 55
7072, 114137, 55
7073, 113709, 55
7074, 113544, 55
7075, 113322, 55
7076, 112816, 55
7077, 112636, 55
7078, 112751, 55
7079, 112322, 55
7080, 112084, 55
7081, 111753, 55
7082, 111685, 55
7083, 111565, 55
7084, 111399, 55
7085, 111317, 55
7086, 111275, 55
7087, 111158, 55
7088, 111061, 55
7089, 110829, 55
7090, 111076, 55
7091, 111049, 55
7092, 111010, 55
7093, 110934, 55
7094, 110971, 55
7095, 111857, 55
7096, 111375, 55
7097, 111375, 55
7098, 111338, 55
7099, 111398, 55
7100, 111437, 55
7101, 111451, 55
7102, 111646, 55
7103, 111601, 55
7104, 111611, 55
7105, 111666, 55
7106, 111934, 55
7107, 112035, 55
7108, 112268, 55
7109, 112440, 55
7110, 112502, 55
7111, 112461, 55
7112, 112742, 55
7113, 112861, 55
7114, 113109, 55
7115, 113244, 55
7116, 113843, 55
7117, 113846, 55
7118, 113889, 55
7119, 114122, 55
7120, 114438, 55
7121, 114569, 55
7122, 114825, 55
7123, 114986, 55
7124, 115220, 55
7125, 119595, 55
7126, 119802, 55
7127, 120144, 55
7128, 120192, 55
7129, 120218, 55
7130, 120155, 55
7131, 120015, 55
7132, 119667, 55
7133, 119215, 55
7134, 118414, 55
7135, 117984, 55
7136, 117444, 55
7137, 116839, 55
7138, 116342, 55
7139, 115858, 55
7140, 115261, 55
7141, 114639, 55
7142, 114058, 55
7143, 113490, 55
7144, 113188, 55
7145, 112830, 55
7146, 112379, 55
7147, 112005, 55
7148, 111523, 55
7149, 111208, 55
7150, 110884, 55
7151, 110537, 55
7152, 110272, 55
7153, 109863, 55
7154, 109365, 55
7155, 109100, 55
7156, 108707, 55
7157, 108601, 55
7158, 108424, 55
7159, 107948, 55
7160, 107805, 55
7161, 107781, 55
7162, 107573, 55
7163, 107079, 55
7164, 106967, 55
7165, 106369, 55
7166, 106262, 55
7167, 106112, 55
7168, 106102, 55
7169, 105814, 55
7170, 105732, 55
7171, 105464, 55
7172, 105226, 55
7173, 105051, 55
7174, 105082, 55
7175, 104936, 55
7176, 104863, 55
7177, 104785, 55
7178, 104964, 55
7179, 104935, 55
7180, 104928, 55
7181, 105145, 55
7182, 105245, 55
7183, 105210, 55
7184, 105242, 55
7185, 105412, 55
7186, 105373, 55
7187, 105438, 55
7188, 105636, 55
7189, 105655, 55
7190, 105800, 55
7191, 105876, 55
7192, 105888, 55
7193, 106134, 55
7194, 106400, 55
7195, 106573, 55
7196, 106485, 55
7197, 106634, 55
7198, 106870, 55
7199, 107151, 55
7200, 110600, 55
7201, 111054, 55
7202, 111156, 55
7203, 111477, 55
7204, 111887, 55
7205, 112160, 55
7206, 112404, 55
7207, 112778, 55
7208, 113210, 55
7209, 113351, 55
7210, 113733, 55
7211, 113859, 55
7212, 114202, 55
7213, 114354, 55
7214, 114724, 55
7215, 114552, 55
7216, 114479, 55
7217, 114335, 55
7218, 114063, 55
7219, 113552, 55
7220, 113163, 55
7221, 112545, 55
7222, 112073, 55
7223, 111543, 55
7224, 110911, 55
7225, 109946, 55
7226, 109385, 55
7227, 109033, 55
7228, 108310, 55
7229, 107810, 55
7230, 107303, 55
7231, 106709, 55
7232, 106420, 55
7233, 105960, 55
7234, 105520, 55
7235, 104830, 55
7236, 104251, 55
7237, 103807, 55
7238, 103348, 55
7239, 102953, 55
7240, 102668, 55
7241, 102476, 55
7242, 101826, 55
7243, 101663, 55
7244, 101098, 55
7245, 100640, 55
7246, 100267, 55
7247, 99919, 55
7248, 99566, 55
7249, 99360, 55
7250, 96212, 55
7251, 95915, 55
7252, 95863, 55
7253, 95741, 55
7254, 95499, 55
7255, 95335, 55
7256, 95348, 55
7257, 95345, 55
7258, 95066, 55
7259, 95065, 55
7260, 94859, 55
7261, 94736, 55
7262, 94810, 55
7263, 94941, 55
7264, 94691, 55
7265, 94557, 55
7266, 94726, 55
7267, 94729, 55
7268, 94549, 55
7269, 94684, 55
7270, 94477, 55
7271, 94620, 55
7272, 94722, 55
7273, 94673, 55
7274, 94929, 55
7275, 96948, 55
7276, 97048, 55
7277, 97357, 55
7278, 97486, 55
7279, 97638, 55
7280, 97881, 55
7281, 98323, 55
7282, 98509, 55
7283, 98601, 55
7284, 98828, 55
7285, 99269, 55
7286, 99447, 55
7287, 99642, 55
7288, 99919, 55
7289, 100057, 55
7290, 100306, 55
7291, 100810, 55
7292, 101077, 55
7293, 101379, 55
7294, 101580, 55
7295, 101918, 55
7296, 102109, 55
7297, 102326, 55
7298, 102181, 55
7299, 101936, 55
7300, 101816, 55
7301, 101311, 55
7302, 100614, 55
7303, 100218, 55
7304, 99671, 55
7305, 99031, 55
7306, 98733, 55
7307, 97849, 55
7308, 97232, 55
7309, 97056, 55
7310, 96250, 55
7311, 95703, 55
7312, 95174, 55
7313, 94915, 55
7314, 94514, 55
7315, 94052, 55
7316, 93349, 55
7317, 92969, 55
7318, 92581, 55
7319, 92233, 55
7320, 91760, 55
7321, 91269, 55
7322, 90984, 55
7323, 90481, 55
7324, 90257, 55
7325, 87576, 55
7326, 86989, 55
7327, 86991, 55
7328, 86679, 55
7329, 86608, 55
7330, 86370, 55
7331, 86216, 55
7332, 86038, 55
7333, 85802, 55
7334, 85604, 55
7335, 85622, 55
7336, 85547, 55
7337, 85536, 55
7338, 85528, 55
7339, 85455, 55
7340, 85320, 55
7341, 85193, 55
7342, 85377, 55
7343, 85444, 55
7344, 85349, 55
7345, 85416, 55
7346, 85704, 55
7347, 85575, 55
7348, 85581, 55
7349, 85586, 55
7350, 87899, 55
7351, 88039, 55
7352, 88049, 55
7353, 88326, 55
7354, 88596, 55
7355, 88826, 55
7356, 89026, 55
7357, 89214, 55
7358, 89494, 55
7359, 89776, 55
7360, 90131, 55
7361, 90363, 55
7362, 90654, 55
7363, 90912, 55
7364, 91234, 55
7365, 91517, 55
7366, 91870, 55
7367, 92248, 55
7368, 92474, 55
7369, 92713, 55
7370, 92889, 55
7371, 93201, 55
7372, 93551, 55
7373, 94070, 55
7374, 94343, 55
7375, 94362, 55
7376, 94828, 55
7377, 95181, 55
7378, 95332, 55
7379, 95640, 55
7380, 95711, 55
7381, 95726, 55
7382, 95520, 55
7383, 95297, 55
7384, 94784, 55
7385, 94346, 55
7386, 93686, 55
7387, 93312, 55
7388, 92626, 55
7389, 91790, 55
7390, 91195, 55
7391, 90466, 55
7392, 89749, 55
7393, 89253, 55
7394, 88648, 55
7395, 88227, 55
7396, 87733, 55
7397, 87276, 55
7398, 86713, 55
7399, 86312, 55
7400, 83034, 55
7401, 82511, 55
7402, 82093, 55
7403, 81680, 55
7404, 81288, 55
7405, 81054, 55
7406, 80656, 55
7407, 80336, 55
7408, 79903, 55
7409, 79706, 55
7410, 78965, 55
7411, 78522, 55
7412, 78243, 55
7413, 78093, 55
7414, 77743, 55
7415, 77724, 55
7416, 77344, 55
7417, 77244, 55
7418, 77067, 55
7419, 76905, 55
7420, 76660, 55
7421, 76474, 55
7422, 76534, 55
7423, 76379, 55
7424, 76309, 55
7425, 76528, 55
7426, 76699, 55
7427, 76553, 55
7428, 76872, 55
7429, 76668, 55
7430, 76984, 55
7431, 77016, 55
7432, 77184, 55
7433, 77310, 55
7434, 77583, 55
7435, 77800, 55
7436, 77949, 55
7437, 78053, 55
7438, 78206, 55
7439, 78630, 55
7440, 78708, 55
7441, 78819, 55
7442, 79094, 55
7443, 79407, 55
7444, 79489, 55
7445, 79870, 55
7446, 80099, 55
7447, 80217, 55
7448, 80496, 55
7449, 80872, 55
7450, 81077, 55
7451, 81332, 55
7452, 81629, 55
7453, 82048, 55
7454, 82208, 55
7455, 82372, 55
7456, 82670, 55
7457, 82826, 55
7458, 83125, 55
7459, 83465, 55
7460, 83814, 55
7461, 84115, 55
7462, 84364, 55
7463, 84618, 55
7464, 85153, 55
7465, 85375, 55
7466, 85793, 55
7467, 85856, 55
7468, 86026, 55
7469, 85809, 55
7470, 85514, 55
7471, 85052, 55
7472, 84626, 55
7473, 84006, 55
7474, 83528, 55
7475, 77999, 55
7476, 77553, 55
7477, 77028, 55
7478, 76478, 55
7479, 75948, 55
7480, 75461, 55
7481, 75102, 55
7482, 74516, 55
7483, 73956, 55
7484, 73340, 55
7485, 72921, 55
7486, 72589, 55
7487, 72095, 55
7488, 71600, 55
7489, 71223, 55
7490, 71024, 55
7491, 70536, 55
7492, 70346, 55
7493, 70042, 55
7494, 69712, 55
7495, 69506, 55
7496, 69355, 55
7497, 69020, 55
7498, 68527, 55
7499, 68240, 55
7500, 66702, 55
7501, 66815, 55
7502, 66773, 55
7503, 66666, 55
7504, 66780, 55
7505, 66838, 55
7506, 66936, 55
7507, 66892, 55
7508, 66972, 55
7509, 66972, 55
7510, 67210, 55
7511, 67340, 55
7512, 67569, 55
7513, 67697, 55
7514, 67997, 55
7515, 68196, 55
7516, 68250, 55
7517, 68405, 55
7518, 68541, 55
7519, 68618, 55
7520, 68912, 55
7521, 69010, 55
7522, 69502, 55
7523, 69474, 55
7524, 69882, 55
7525, 69963, 56
7526, 70221, 56
7527, 70398, 56
7528, 70666, 56
7529, 71035, 56
7530, 71460, 56
7531, 71797, 56
7532, 71884, 56
7533, 72209, 56
7534, 72484, 56
7535, 72941, 56
7536, 73096, 56
7537, 73451, 56
7538, 73946, 56
7539, 74191, 56
7540, 74700, 56
7541, 75013, 56
7542, 75201, 56
7543, 76418, 56
7544, 76286, 56
7545, 76023, 56
7546, 76139, 56
7547, 75982, 56
7548, 75532, 56
7549, 75284, 56
7550, 70449, 56
7551, 69742, 56
7552, 69361, 56
7553, 68944, 56
7554, 68585, 56
7555, 68230, 56
7556, 67995, 56
7557, 67795, 56
7558, 67450, 56
7559, 66987, 56
7560, 66423, 56
7561, 65971, 56
7562, 65866, 56
7563, 65449, 56
7564, 65362, 56
7565, 65050, 56
7566, 64804, 56
7567, 64934, 56
7568, 64572, 56
7569, 64277, 56
7570, 64252, 56
7571, 63928, 56
7572, 63758, 56
7573, 63567, 56
7574, 63273, 56
7575, 62829, 56
7576, 62646, 56
7577, 62730, 56
7578, 62514, 56
7579, 62525, 56
7580, 62565, 56
7581, 62338, 56
7582, 62255, 56
7583, 62278, 56
7584, 62429, 56
7585, 62571, 56
7586, 62598, 56
7587, 62779, 56
7588, 62794, 56
7589, 62724, 56
7590, 62781, 56
7591, 62873, 56
7592, 63112, 56
7593, 63195, 56
7594, 63445, 56
7595, 63579, 56
7596, 63883, 56
7597, 63871, 56
7598, 63824, 56
7599, 64114, 56
7600, 64542, 56
7601, 64787, 56
7602, 64877, 56
7603, 65251, 56
7604, 65474, 56
7605, 65541, 56
7606, 65761, 56
7607, 65989, 56
7608, 66361, 56
7609, 66635, 56
7610, 67456, 56
7611, 67456, 56
7612, 67509, 56
7613, 67760, 56
7614, 67983, 56
7615, 68408, 56
7616, 68729, 56
7617, 68951, 56
7618, 69303, 56
7619, 69552, 56
7620, 70032, 56
7621, 70386, 56
7622, 70697, 56
7623, 71087, 56
7624, 71641, 56
7625, 73518, 56
7626, 72791, 56
7627, 72155, 56
7628, 71446, 56
7629, 70919, 56
7630, 70367, 56
7631, 69673, 56
7632, 69400, 56
7633, 68836, 56
7634, 68212, 56
7635, 67724, 56
7636, 67220, 56
7637, 66998, 56
7638, 66673, 56
7639, 66133, 56
7640, 65705, 56
7641, 65259, 56
7642, 64776, 56
7643, 64463, 56
7644, 63952, 56
7645, 63689, 56
7646, 63447, 56
7647, 63315, 56
7648, 62864, 56
7649, 62560, 56
7650, 61371, 56
7651, 61249, 56
7652, 61027, 56
7653, 60863, 56
7654, 60621, 56
7655, 60312, 56
7656, 60124, 56
7657, 59678, 56
7658, 59482, 56
7659, 59514, 56
7660, 59442, 56
7661, 59327, 56
7662, 59159, 56
7663, 59121, 56
7664, 59307, 56
7665, 59095, 56
7666, 59176, 56
7667, 59219, 56
7668, 59156, 56
7669, 59291, 56
7670, 59287, 56
7671, 59285, 56
7672, 59571, 56
7673, 59566, 56
7674, 59703, 56
7675, 60066, 57
7676, 59976, 57
7677, 60206, 57
7678, 60434, 57
7679, 60468, 57
7680, 60681, 57
7681, 60929, 57
7682, 61060, 57
7683, 61411, 57
7684, 61478, 57
7685, 61520, 57
7686, 61687, 57
7687, 61938, 57
7688, 62058, 57
7689, 62419, 57
7690, 62476, 57
7691, 62865, 57
7692, 62701, 57
7693, 63171, 57
7694, 63627, 57
7695, 64257, 57
7696, 64001, 57
7697, 64147, 57
7698, 64356, 57
7699, 64616, 57
7700, 66043, 57
7701, 66629, 57
7702, 66813, 57
7703, 67121, 57
7704, 67307, 57
7705, 67691, 57
7706, 68032, 57
7707, 68355, 57
7708, 68720, 57
7709, 68988, 57
7710, 69438, 57
7711, 69956, 57
7712, 70194, 57
7713, 70451, 57
7714, 70756, 57
7715, 71131, 57
7716, 71233, 57
7717, 71482, 57
7718, 71372, 57
7719, 71316, 57
7720, 70925, 57
7721, 70621, 57
7722, 70032, 57
7723, 69464, 57
7724, 68780, 57
7725, 66287, 57
7726, 65812, 57
7727, 65282, 57
7728, 64775, 57
7729, 64261, 57
7730, 64070, 57
7731, 63565, 57
7732, 63116, 57
7733, 62706, 57
7734, 62598, 57
7735, 62153, 57
7736, 61809, 57
7737, 61233, 57
7738, 60969, 57
7739, 60787, 57
7740, 60457, 57
7741, 60079, 57
7742, 59671, 57
7743, 59542, 57
7744, 59372, 57
7745, 58973, 57
7746, 58636, 57
7747, 58355, 57
7748, 58128, 57
7749, 57897, 57
7750, 56354, 57
7751, 56547, 57
7752, 56435, 57
7753, 56720, 57
7754, 56811, 57
7755, 57067, 57
7756, 57210, 57
7757, 57332, 57
7758, 57490, 57
7759, 57807, 57
7760, 57914, 57
7761, 58034, 57
7762, 58003, 57
7763, 58260, 57
7764, 58394, 57
7765, 58696, 57
7766, 58948, 57
7767, 59232, 57
7768, 59527, 57
7769, 59536, 57
7770, 59956, 57
7771, 60027, 57
7772, 60396, 57
7773, 60475, 57
7774, 60942, 57
7775, 62307, 57
7776, 62811, 57
7777, 63173, 57
7778, 63446, 57
7779, 63873, 57
7780, 64209, 57
7781, 64433, 57
7782, 64890, 57
7783, 65351, 57
7784, 65728, 57
7785, 66231, 57
7786, 66693, 57
7787, 67037, 57
7788, 67436, 57
7789, 67900, 57
7790, 68218, 57
7791, 68600, 57
7792, 68734, 57
7793, 68922, 57
7794, 68991, 57
7795, 68578, 57
7796, 68189, 57
7797, 67624, 57
7798, 66925, 57
7799, 66482, 57
7800, 64010, 57
7801, 63498, 57
7802, 63096, 57
7803, 62573, 57
7804, 62123, 57
7805, 61594, 57
7806, 61155, 57
7807, 60684, 57
7808, 60386, 57
7809, 59916, 57
7810, 59184, 57
7811, 59184, 57
7812, 58816, 57
7813, 58463, 57
7814, 58280, 57
7815, 58103, 57
7816, 57716, 57
7817, 57502, 57
7818, 56937, 57
7819, 56957, 57
7820, 56841, 57
7821, 56754, 57
7822, 56478, 57
7823, 56432, 57
7824, 56185, 57
7825, 55303, 57
7826, 55149, 57
7827, 55240, 57
7828, 55359, 57
7829, 55361, 57
7830, 55623, 57
7831, 55683, 57
7832, 55838, 57
7833, 56042, 57
7834, 56282, 57
7835, 56221, 57
7836, 56559, 57
7837, 56906, 57
7838, 57013, 57
7839, 57062, 57
7840, 57422, 57
7841, 57479, 57
7842, 57867, 57
7843, 58129, 57
7844, 58332, 57
7845, 58576, 57
7846, 58982, 57
7847, 59261, 57
7848, 59417, 57
7849, 59497, 57
7850, 61878, 57
7851, 62067, 57
7852, 62365, 57
7853, 62574, 57
7854, 62963, 57
7855, 63538, 57
7856, 63795, 57
7857, 64256, 57
7858, 64637, 57
7859, 65010, 57
7860, 65393, 57
7861, 65944, 57
7862, 66154, 57
7863, 66468, 57
7864, 66840, 57
7865, 67247, 57
7866, 67771, 57
7867, 68205, 57
7868, 68669, 57
7869, 69064, 57
7870, 69557, 57
7871, 69966, 57
7872, 70201, 57
7873, 70659, 57
7874, 70749, 57
7875, 70169, 57
7876, 69610, 57
7877, 69234, 57
7878, 68499, 57
7879, 68005, 57
7880, 67322, 57
7881, 66435, 57
7882, 66159, 57
7883, 65566, 57
7884, 65132, 57
7885, 64583, 57
7886, 63999, 57
7887, 63681, 57
7888, 63220, 57
7889, 62708, 57
7890, 62337, 57
7891, 61757, 57
7892, 61242, 57
7893, 60903, 57
7894, 60455, 57
7895, 60086, 57
7896, 59633, 57
7897, 59545, 57
7898, 59296, 57
7899, 58938, 57
7900, 57987, 57
7901, 57751, 57
7902, 57441, 57
7903, 57361, 57
7904, 57134, 57
7905, 56918, 57
7906, 56786, 57
7907, 56610, 57
7908, 56564, 57
7909, 56348, 57
7910, 56205, 57
7911, 56242, 57
7912, 56171, 57
7913, 56075, 57
7914, 55901, 57
7915, 55969, 57
7916, 56002, 57
7917, 55997, 57
7918, 56081, 57
7919, 56073, 57
7920, 56137, 57
7921, 56137, 57
7922, 56223, 57
7923, 56287, 57
7924, 56442, 57
7925, 57192, 57
7926, 57463, 57
7927, 57389, 57
7928, 57633, 57
7929, 57615, 57
7930, 57871, 57
7931, 58015, 57
7932, 58248, 57
7933, 58671, 57
7934, 58675, 57
7935, 59074, 57
7936, 59264, 57
7937, 59557, 57
7938, 59867, 57
7939, 60081, 57
7940, 60262, 57
7941, 60536, 57
7942, 60942, 57
7943, 61478, 57
7944, 61864, 57
7945, 62085, 57
7946, 62205, 57
7947, 62600, 57
7948, 62922, 57
7949, 63231, 57
7950, 70773, 57
7951, 71229, 57
7952, 71709, 57
7953, 71877, 57
7954, 72105, 57
7955, 71902, 57
7956, 71673, 57
7957, 71410, 57
7958, 70985, 57
7959, 70574, 57
7960, 70174, 57
7961, 69565, 57
7962, 68703, 57
7963, 68216, 57
7964, 67728, 57
7965, 67260, 57
7966, 66735, 57
7967, 66201, 57
7968, 65879, 57
7969, 65182, 57
7970, 64922, 57
7971, 64649, 57
7972, 64026, 57
7973, 63595, 57
7974, 63208, 57
7975, 61459, 57
7976, 61420, 57
7977, 61055, 57
7978, 60608, 57
7979, 60428, 57
7980, 60218, 57
7981, 59789, 57
7982, 59624, 57
7983, 59265, 57
7984, 59045, 57
7985, 58674, 57
7986, 58178, 57
7987, 58032, 57
7988, 57951, 57
7989, 57648, 57
7990, 57565, 57
7991, 57324, 57
7992, 57170, 57
7993, 57090, 57
7994, 56938, 57
7995, 56917, 57
7996, 56527, 57
7997, 56638, 57
7998, 56563, 57
7999, 56325, 57
8000, 56373, 58
8001, 56473, 58
8002, 56449, 58
8003, 56534, 58
8004, 56658, 58
8005, 56692, 58
8006, 56884, 58
8007, 56783, 58
8008, 57097, 58
8009, 57243, 58
8010, 57896, 58
8011, 57896, 58
8012, 57675, 58
8013, 57631, 58
8014, 57608, 58
8015, 57807, 58
8016, 58013, 58
8017, 58146, 58
8018, 58100, 58
8019, 58143, 58
8020, 58250, 58
8021, 58621, 58
8022, 58812, 58
8023, 58981, 58
8024, 59166, 58
8025, 65913, 58
8026, 66296, 58
8027, 66575, 58
8028, 67048, 58
8029, 67539, 58
8030, 67878, 58
8031, 68126, 58
8032, 68473, 58
8033, 68755, 58
8034, 68962, 58
8035, 68696, 58
8036, 68443, 58
8037, 68051, 58
8038, 67516, 58
8039, 67225, 58
8040, 66473, 58
8041, 65877, 58
8042, 65343, 58
8043, 64816, 58
8044, 64378, 58
8045, 63957, 58
8046, 63458, 58
8047, 63093, 58
8048, 62764, 58
8049, 62371, 58
8050, 61044, 58
8051, 60915, 58
8052, 60522, 58
8053, 60357, 58
8054, 60013, 58
8055, 60115, 58
8056, 59804, 58
8057, 59385, 58
8058, 59358, 58
8059, 59124, 58
8060, 58863, 58
8061, 58619, 58
8062, 58456, 58
8063, 58405, 58
8064, 58151, 58
8065, 58031, 58
8066, 57987, 58
8067, 57646, 58
8068, 57425, 58
8069, 57289, 58
8070, 57249, 58
8071, 57344, 58
8072, 57171, 58
8073, 57057, 58
8074, 56968, 58
8075, 57155, 58
8076, 57221, 58
8077, 57234, 58
8078, 57223, 58
8079, 57334, 58
8080, 57415, 58
8081, 57573, 58
8082, 57580, 58
8083, 57929, 58
8084, 58083, 58
8085, 58213, 58
8086, 58422, 58
8087, 58521, 58
8088, 58724, 58
8089, 58925, 58
8090, 59058, 58
8091, 59271, 58
8092, 59584, 58
8093, 59786, 58
8094, 60178, 58
8095, 60580, 58
8096, 60694, 58
8097, 60980, 58
8098, 61205, 58
8099, 61651, 58
8100, 69707, 58
8101, 70230, 58
8102, 70546, 58
8103, 70615, 58
8104, 70926, 58
8105, 71072, 58
8106, 70757, 58
8107, 70545, 58
8108, 70098, 58
8109, 69772, 58
8110, 69369, 58
8111, 68719, 58
8112, 68556, 58
8113, 68029, 58
8114, 67536, 58
8115, 66928, 58
8116, 66569, 58
8117, 66080, 58
8118, 65794, 58
8119, 65342, 58
8120, 65083, 58
8121, 64708, 58
8122, 64333, 58
8123, 64070, 58
8124, 63581, 58
8125, 62673, 58
8126, 62182, 58
8127, 61916, 58
8128, 61729, 58
8129, 61476, 58
8130, 61379, 58
8131, 61134, 58
8132, 61070, 58
8133, 60989, 58
8134, 60924, 58
8135, 60581, 58
8136, 60360, 58
8137, 60552, 58
8138, 60412, 58
8139, 60389, 58
8140, 60281, 58
8141, 60155, 58
8142, 60033, 58
8143, 60030, 58
8144, 59927, 58
8145, 60036, 58
8146, 60227, 58
8147, 60144, 58
8148, 60122, 58
8149, 60337, 58
8150, 60580, 58
8151, 60681, 58
8152, 60803, 58
8153, 61058, 58
8154, 61070, 58
8155, 61437, 58
8156, 61557, 58
8157, 61728, 58
8158, 61810, 58
8159, 61846, 58
8160, 62183, 58
8161, 62369, 58
8162, 62461, 58
8163, 62781, 58
8164, 63010, 58
8165, 63184, 58
8166, 63405, 58
8167, 63732, 58
8168, 64049, 58
8169, 64236, 58
8170, 64458, 58
8171, 65112, 58
8172, 65184, 58
8173, 65643, 58
8174, 65770, 58
8175, 68114, 58
8176, 68363, 58
8177, 68633, 58
8178, 69151, 58
8179, 69495, 58
8180, 69982, 58
8181, 70220, 58
8182, 70771, 58
8183, 71102, 58
8184, 71717, 58
8185, 72240, 58
8186, 72357, 58
8187, 72964, 58
8188, 73382, 58
8189, 74062, 58
8190, 74287, 58
8191, 74763, 58
8192, 75348, 58
8193, 75698, 58
8194, 75989, 58
8195, 76350, 58
8196, 76432, 58
8197, 76344, 58
8198, 76224, 58
8199, 76130, 58
8200, 69452, 58
8201, 69040, 58
8202, 68458, 58
8203, 68215, 58
8204, 67971, 58
8205, 67566, 58
8206, 67410, 58
8207, 67065, 58
8208, 66867, 58
8209, 66686, 58
8210, 66688, 58
8211, 66339, 58
8212, 66051, 58
8213, 65821, 58
8214, 65712, 58
8215, 65590, 58
8216, 65365, 58
8217, 65377, 58
8218, 64887, 58
8219, 64887, 58
8220, 64699, 58
8221, 64506, 58
8222, 64493, 58
8223, 64431, 58
8224, 64325, 58
8225, 64226, 58
8226, 64339, 58
8227, 64327, 58
8228, 64417, 58
8229, 64527, 58
8230, 64725, 58
8231, 64748, 58
8232, 64871, 58
8233, 64943, 58
8234, 64985, 58
8235, 65098, 58
8236, 65315, 58
8237, 65562, 58
8238, 65688, 58
8239, 65896, 58
8240, 66076, 58
8241, 66194, 58
8242, 66548, 58
8243, 66654, 58
8244, 66845, 58
8245, 67108, 58
8246, 67502, 58
8247, 67630, 58
8248, 67742, 58
8249, 67898, 58
8250, 69619, 58
8251, 69944, 58
8252, 70358, 58
8253, 70510, 58
8254, 71008, 58
8255, 71261, 58
8256, 71756, 58
8257, 72042, 58
8258, 72333, 58
8259, 72656, 58
8260, 73162, 58
8261, 73881, 58
8262, 73951, 58
8263, 74302, 58
8264, 74693, 58
8265, 75037, 58
8266, 75458, 58
8267, 75889, 58
8268, 76297, 58
8269, 76671, 58
8270, 77127, 58
8271, 77480, 58
8272, 77915, 58
8273, 78323, 58
8274, 78565, 58
8275, 73936, 58
8276, 73554, 58
8277, 73425, 58
8278, 73050, 58
8279, 72679, 58
8280, 72423, 58
8281, 72297, 58
8282, 72109, 58
8283, 71859, 58
8284, 71615, 58
8285, 71361, 58
8286, 71239, 58
8287, 71147, 58
8288, 70820, 58
8289, 70866, 58
8290, 70721, 58
8291, 70523, 58
8292, 70408, 58
8293, 70164, 58
8294, 70064, 58
8295, 69939, 58
8296, 69876, 58
8297, 69723, 58
8298, 69780, 58
8299, 69605, 58
8300, 69713, 59
8301, 69679, 59
8302, 69717, 59
8303, 69713, 59
8304, 69813, 59
8305, 69750, 59
8306, 69924, 59
8307, 69853, 59
8308, 70041, 59
8309, 70166, 59
8310, 70157, 59
8311, 70389, 59
8312, 70733, 59
8313, 70780, 59
8314, 71143, 59
8315, 71206, 59
8316, 71478, 59
8317, 71607, 59
8318, 71791, 59
8319, 72082, 59
8320, 72244, 59
8321, 72518, 59
8322, 73088, 59
8323, 73211, 59
8324, 73487, 59
8325, 76267, 59
8326, 76912, 59
8327, 77320, 59
8328, 77737, 59
8329, 77953, 59
8330, 78323, 59
8331, 78638, 59
8332, 79043, 59
8333, 79524, 59
8334, 79924, 59
8335, 80416, 59
8336, 80794, 59
8337, 81266, 59
8338, 81516, 59
8339, 81989, 59
8340, 82382, 59
8341, 82748, 59
8342, 83362, 59
8343, 83789, 59
8344, 84088, 59
8345, 84510, 59
8346, 84632, 59
8347, 84686, 59
8348, 84637, 59
8349, 84588, 59
8350, 79769, 59
8351, 79511, 59
8352, 78996, 59
8353, 78617, 59
8354, 78335, 59
8355, 78071, 59
8356, 78036, 59
8357, 77715, 59
8358, 77496, 59
8359, 77323, 59
8360, 77242, 59
8361, 77206, 59
8362, 76985, 59
8363, 76770, 59
8364, 76671, 59
8365, 76624, 59
8366, 76536, 59
8367, 76406, 59
8368, 76242, 59
8369, 76034, 59
8370, 75979, 59
8371, 75894, 59
8372, 75702, 59
8373, 75654, 59
8374, 75817, 59
8375, 75944, 59
8376, 75933, 59
8377, 76033, 59
8378, 75923, 59
8379, 75976, 59
8380, 76036, 59
8381, 76232, 59
8382, 76543, 59
8383, 76433, 59
8384, 76476, 59
8385, 76671, 59
8386, 76883, 59
8387, 76935, 59
8388, 77136, 59
8389, 77502, 59
8390, 77567, 59
8391, 77671, 59
8392, 77937, 59
8393, 78152, 59
8394, 78331, 59
8395, 78648, 59
8396, 78758, 59
8397, 78934, 59
8398, 79336, 59
8399, 79540, 59
8400, 82458, 59
8401, 82665, 59
8402, 82923, 59
8403, 83413, 59
8404, 83914, 59
8405, 84280, 59
8406, 84736, 59
8407, 85108, 59
8408, 85539, 59
8409, 85890, 59
8410, 86255, 59
8411, 86599, 59
8412, 86980, 59
8413, 87456, 59
8414, 87859, 59
8415, 88196, 59
8416, 88679, 59
8417, 89331, 59
8418, 89610, 59
8419, 90047, 59
8420, 90679, 59
8421, 90927, 59
8422, 91486, 59
8423, 91816, 59
8424, 92231, 59
8425, 87695, 59
8426, 87488, 59
8427, 87261, 59
8428, 86762, 59
8429, 86523, 59
8430, 86086, 59
8431, 85641, 59
8432, 85345, 59
8433, 85103, 59
8434, 84921, 59
8435, 84565, 59
8436, 84511, 59
8437, 84243, 59
8438, 84060, 59
8439, 83757, 59
8440, 83699, 59
8441, 83453, 59
8442, 83381, 59
8443, 83158, 59
8444, 82867, 59
8445, 82620, 59
8446, 82433, 59
8447, 82478, 59
8448, 82247, 59
8449, 82072, 59
8450, 82127, 59
8451, 81947, 59
8452, 81832, 59
8453, 81815, 59
8454, 81496, 59
8455, 81564, 59
8456, 81746, 59
8457, 81606, 59
8458, 81819, 59
8459, 81967, 59
8460, 82001, 59
8461, 82020, 59
8462, 82165, 59
8463, 82052, 59
8464, 82145, 59
8465, 82284, 59
8466, 82298, 59
8467, 82425, 59
8468, 82722, 59
8469, 82933, 59
8470, 82869, 59
8471, 83032, 59
8472, 83238, 59
8473, 83451, 59
8474, 83718, 59
8475, 85518, 59
8476, 85815, 59
8477, 86035, 59
8478, 86240, 59
8479, 86740, 59
8480, 86784, 59
8481, 87339, 59
8482, 87411, 59
8483, 87585, 59
8484, 87852, 59
8485, 88212, 59
8486, 88641, 59
8487, 89068, 59
8488, 89437, 59
8489, 89624, 59
8490, 89938, 59
8491, 90473, 59
8492, 90683, 59
8493, 90948, 59
8494, 91264, 59
8495, 91665, 59
8496, 92263, 59
8497, 92409, 59
8498, 92757, 59
8499, 93235, 59
8500, 92174, 59
8501, 91253, 59
8502, 90985, 59
8503, 90553, 59
8504, 90098, 59
8505, 89809, 59
8506, 89667, 59
8507, 89326, 59
8508, 89093, 59
8509, 88602, 59
8510, 88411, 59
8511, 88309, 59
8512, 87978, 59
8513, 87802, 59
8514, 87542, 59
8515, 87461, 59
8516, 87264, 59
8517, 86966, 59
8518, 86853, 59
8519, 86807, 59
8520, 86607, 59
8521, 86329, 59
8522, 86165, 59
8523, 85870, 59
8524, 85972, 59
8525, 85703, 59
8526, 85614, 59
8527, 85511, 59
8528, 85327, 59
8529, 85188, 59
8530, 85050, 59
8531, 85124, 59
8532, 85065, 59
8533, 85064, 59
8534, 85169, 59
8535, 85190, 59
8536, 85591, 59
8537, 85423, 59
8538, 85492, 59
8539, 85411, 59
8540, 85576, 59
8541, 85819, 59
8542, 85763, 59
8543, 85955, 59
8544, 86269, 59
8545, 86469, 59
8546, 86784, 59
8547, 86911, 59
8548, 87002, 59
8549, 87155, 59
8550, 89386, 59
8551, 89785, 59
8552, 89987, 59
8553, 90298, 59
8554, 90666, 59
8555, 90965, 59
8556, 91110, 59
8557, 91571, 59
8558, 91821, 59
8559, 92130, 59
8560, 92646, 59
8561, 93016, 59
8562, 93344, 59
8563, 93788, 59
8564, 94068, 59
8565, 94456, 59
8566, 94904, 59
8567, 95395, 59
8568, 95770, 59
8569, 96011, 59
8570, 96555, 59
8571, 96993, 59
8572, 97564, 59
8573, 97840, 59
8574, 98243, 59
8575, 95422, 59
8576, 95052, 59
8577, 94772, 59
8578, 94101, 59
8579, 94101, 59
8580, 93880, 59
8581, 93608, 59
8582, 93183, 59
8583, 92972, 59
8584, 92621, 59
8585, 92480, 59
8586, 92080, 59
8587, 91825, 59
8588, 91574, 59
8589, 91342, 59
8590, 91335, 59
8591, 91085, 59
8592, 90913, 59
8593, 90801, 59
8594, 90676, 59
8595, 90612, 59
8596, 90288, 59
8597, 89938, 59
8598, 89832, 59
8599, 89800, 59
8600, 89757, 59
8601, 89767, 59
8602, 89543, 59
8603, 89651, 59
8604, 89379, 59
8605, 89230, 59
8606, 89291, 59
8607, 89246, 59
8608, 89184, 59
8609, 89304, 59
8610, 89425, 59
8611, 89387, 59
8612, 89447, 59
8613, 89719, 59
8614, 89800, 59
8615, 89833, 59
8616, 90079, 59
8617, 90030, 59
8618, 90175, 59
8619, 90371, 59
8620, 90437, 59
8621, 90685, 59
8622, 90765, 59
8623, 90924, 59
8624, 90918, 59
8625, 93287, 59
8626, 93766, 59
8627, 94085, 59
8628, 94450, 59
8629, 94596, 59
8630, 94816, 59
8631, 94923, 59
8632, 95240, 59
8633, 95759, 59
8634, 96149, 59
8635, 96428, 59
8636, 96727, 59
8637, 96961, 59
8638, 97558, 59
8639, 97941, 59
8640, 98372, 59
8641, 98762, 59
8642, 99069, 59
8643, 99358, 59
8644, 100013, 59
8645, 100340, 59
8646, 100821, 59
8647, 101296, 59
8648, 101742, 59
8649, 102068, 59
8650, 102647, 59
8651, 102977, 59
8652, 103614, 59
8653, 104115, 59
8654, 104296, 59
8655, 104665, 59
8656, 104916, 59
8657, 104785, 59
8658, 105033, 59
8659, 104978, 59
8660, 104830, 59
8661, 104566, 59
8662, 104113, 59
8663, 103460, 59
8664, 103026, 59
8665, 102393, 59
8666, 101834, 59
8667, 101402, 59
8668, 100936, 59
8669, 100542, 59
8670, 100210, 59
8671, 100042, 59
8672, 99605, 59
8673, 99306, 59
8674, 99045, 59
8675, 96129, 59
8676, 96013, 59
8677, 95594, 59
8678, 95352, 59
8679, 95197, 59
8680, 94901, 59
8681, 94716, 59
8682, 94370, 59
8683, 94215, 59
8684, 94058, 59
8685, 93646, 59
8686, 93476, 59
8687, 93454, 59
8688, 93377, 59
8689, 93039, 59
8690, 92938, 59
8691, 92789, 59
8692, 92591, 59
8693, 92476, 59
8694, 92537, 59
8695, 92598, 59
8696, 92315, 59
8697, 92692, 59
8698, 92268, 59
8699, 92282, 59
8700, 94422, 59
8701, 94474, 59
8702, 94568, 59
8703, 94865, 59
8704, 94957, 59
8705, 95179, 59
8706, 95469, 59
8707, 95656, 59
8708, 96078, 59
8709, 96132, 59
8710, 96443, 59
8711, 96603, 59
8712, 97042, 59
8713, 97204, 59
8714, 97326, 59
8715, 97814, 59
8716, 98120, 59
8717, 98351, 59
8718, 98834, 59
8719, 99097, 59
8720, 99428, 59
8721, 99860, 59
8722, 100006, 59
8723, 100455, 59
8724, 100873, 59
8725, 101319, 59
8726, 101818, 59
8727, 102045, 59
8728, 102485, 59
8729, 103025, 59
8730, 103213, 59
8731, 103744, 59
8732, 104097, 59
8733, 104415, 59
8734, 104675, 59
8735, 105235, 59
8736, 105609, 59
8737, 105455, 59
8738, 105417, 59
8739, 105405, 59
8740, 105351, 59
8741, 105051, 59
8742, 104572, 59
8743, 104080, 59
8744, 103520, 59
8745, 103178, 59
8746, 102585, 59
8747, 102197, 59
8748, 102021, 59
8749, 101474, 59
8750, 99053, 59
8751, 98535, 59
8752, 98182, 59
8753, 97810, 59
8754, 97566, 59
8755, 97420, 59
8756, 97389, 59
8757, 97009, 59
8758, 96733, 59
8759, 96648, 59
8760, 96320, 59
8761, 96203, 59
8762, 96011, 59
8763, 95692, 59
8764, 95534, 59
8765, 95349, 59
8766, 95069, 59
8767, 95067, 59
8768, 95014, 59
8769, 94928, 59
8770, 94796, 59
8771, 94693, 59
8772, 94536, 59
8773, 94683, 59
8774, 94554, 59
8775, 97235, 59
8776, 97273, 59
8777, 97422, 59
8778, 97641, 59
8779, 98131, 59
8780, 98380, 59
8781, 98672, 59
8782, 98862, 59
8783, 99163, 59
8784, 99364, 59
8785, 99700, 59
8786, 100080, 59
8787, 100506, 59
8788, 100713, 59
8789, 101067, 59
8790, 101464, 59
8791, 101849, 59
8792, 102138, 59
8793, 102572, 59
8794, 102984, 59
8795, 103146, 59
8796, 103646, 59
8797, 104049, 59
8798, 104504, 59
8799, 104956, 59
8800, 105370, 59
8801, 105822, 59
8802, 106651, 59
8803, 106716, 59
8804, 107060, 59
8805, 107502, 59
8806, 107921, 59
8807, 108584, 59
8808, 108918, 59
8809, 109065, 59
8810, 109462, 59
8811, 109560, 59
8812, 109352, 59
8813, 109123, 59
8814, 108892, 59
8815, 108600, 59
8816, 108168, 59
8817, 107792, 59
8818, 107189, 59
8819, 106815, 59
8820, 106459, 59
8821, 106124, 59
8822, 105490, 59
8823, 105057, 59
8824, 105001, 59
8825, 102598, 59
8826, 102260, 59
8827, 101953, 59
8828, 101558, 59
8829, 101523, 59
8830, 101506, 59
8831, 101250, 59
8832, 101185, 59
8833, 100875, 59
8834, 100510, 59
8835, 100501, 59
8836, 100343, 59
8837, 99981, 59
8838, 99987, 59
8839, 99873, 59
8840, 99790, 59
8841, 99503, 59
8842, 99341, 59
8843, 99264, 59
8844, 99193, 59
8845, 99023, 59
8846, 98984, 59
8847, 98855, 59
8848, 98861, 59
8849, 98858, 59
8850, 100913, 59
8851, 101131, 59
8852, 101498, 59
8853, 101660, 59
8854, 101949, 59
8855, 102298, 59
8856, 102436, 59
8857, 102878, 59
8858, 102908, 59
8859, 103289, 59
8860, 103619, 59
8861, 103812, 59
8862, 104057, 59
8863, 104366, 59
8864, 104697, 59
8865, 105037, 59
8866, 105451, 59
8867, 105755, 59
8868, 106003, 59
8869, 106524, 59
8870, 106806, 59
8871, 107014, 59
8872, 107324, 59
8873, 107795, 59
8874, 108180, 59
8875, 108530, 59
8876, 108865, 59
8877, 109578, 59
8878, 110073, 59
8879, 110197, 59
8880, 110533, 59
8881, 110823, 59
8882, 111171, 59
8883, 111778, 59
8884, 112105, 59
8885, 112606, 59
8886, 113026, 59
8887, 113241, 59
8888, 113578, 59
8889, 113812, 59
8890, 113964, 59
8891, 113851, 59
8892, 113574, 59
8893, 113324, 59
8894, 113056, 59
8895, 112506, 59
8896, 112188, 59
8897, 111634, 59
8898, 110966, 59
8899, 110478, 59
8900, 107778, 59
8901, 107034, 59
8902, 106620, 59
8903, 106307, 59
8904, 105854, 59
8905, 105442, 59
8906, 104915, 59
8907, 104660, 59
8908, 104376, 59
8909, 104101, 59
8910, 103454, 59
8911, 103310, 59
8912, 103005, 59
8913, 102400, 59
8914, 102401, 59
8915, 101838, 59
8916, 101499, 59
8917, 101546, 59
8918, 101281, 59
8919, 100796, 59
8920, 100588, 59
8921, 100258, 59
8922, 100307, 59
8923, 100199, 59
8924, 99612, 59
8925, 99199, 59
8926, 99479, 59
8927, 99536, 59
8928, 99697, 59
8929, 99679, 59
8930, 99971, 59
8931, 100070, 59
8932, 100975, 59
8933, 100459, 59
8934, 100460, 59
8935, 100482, 59
8936, 100880, 59
8937, 100916, 59
8938, 101019, 59
8939, 101311, 59
8940, 101501, 59
8941, 101784, 59
8942, 101852, 59
8943, 102083, 59
8944, 102370, 59
8945, 102494, 59
8946, 102863, 59
8947, 103186, 59
8948, 103305, 59
8949, 103886, 59
8950, 103895, 59
8951, 104328, 59
8952, 104371, 59
8953, 104848, 59
8954, 105201, 59
8955, 105446, 59
8956, 105868, 59
8957, 106060, 59
8958, 106452, 59
8959, 106789, 59
8960, 107199, 59
8961, 107523, 59
8962, 107977, 59
8963, 108212, 59
8964, 108742, 59
8965, 108939, 59
8966, 109289, 59
8967, 109426, 59
8968, 110235, 59
8969, 110172, 59
8970, 110181, 59
8971, 110109, 59
8972, 109580, 59
8973, 109314, 59
8974, 108827, 59
8975, 105938, 59
8976, 105367, 59
8977, 105000, 59
8978, 104504, 59
8979, 104362, 59
8980, 103631, 59
8981, 103300, 59
8982, 102841, 59
8983, 102612, 59
8984, 102170, 59
8985, 101754, 59
8986, 101424, 59
8987, 101329, 59
8988, 101209, 59
8989, 100875, 59
8990, 100579, 59
8991, 100365, 59
8992, 100087, 59
8993, 99929, 59
8994, 99762, 59
8995, 99589, 59
8996, 99344, 59
8997, 99178, 59
8998, 98949, 59
8999, 98954, 59
9000, 98961, 59
9001, 99361, 59
9002, 99301, 59
9003, 99482, 59
9004, 99648, 59
9005, 99914, 59
9006, 100036, 59
9007, 100344, 59
9008, 100593, 59
9009, 100825, 59
9010, 100962, 59
9011, 101141, 59
9012, 101458, 59
9013, 101710, 59
9014, 101820, 59
9015, 102355, 59
9016, 102599, 59
9017, 102638, 59
9018, 102900, 59
9019, 103259, 59
9020, 103764, 59
9021, 104274, 59
9022, 104347, 59
9023, 104582, 59
9024, 105063, 59
9025, 105272, 59
9026, 105633, 59
9027, 105938, 59
9028, 106247, 59
9029, 106632, 59
9030, 107017, 59
9031, 107314, 59
9032, 107675, 59
9033, 108201, 59
9034, 108536, 59
9035, 109056, 59
9036, 109372, 59
9037, 109861, 59
9038, 109942, 59
9039, 110257, 59
9040, 110156, 59
9041, 109838, 59
9042, 109627, 59
9043, 109313, 59
9044, 108851, 59
9045, 108456, 59
9046, 107966, 59
9047, 107442, 59
9048, 107109, 59
9049, 106598, 59
9050, 103868, 59
9051, 103451, 59
9052, 102758, 59
9053, 102251, 59
9054, 101910, 59
9055, 101455, 59
9056, 101144, 59
9057, 100868, 59
9058, 100317, 59
9059, 100079, 59
9060, 99882, 59
9061, 99616, 59
9062, 99208, 59
9063, 99169, 59
9064, 98816, 59
9065, 98621, 59
9066, 98296, 59
9067, 98057, 59
9068, 98127, 59
9069, 97824, 59
9070, 97475, 59
9071, 97421, 59
9072, 97277, 59
9073, 97087, 59
9074, 96898, 59
9075, 96390, 60
9076, 96400, 60
9077, 96576, 60
9078, 96496, 60
9079, 96473, 60
9080, 96602, 60
9081, 96759, 60
9082, 96592, 60
9083, 96707, 60
9084, 96924, 60
9085, 96944, 60
9086, 97017, 60
9087, 96998, 60
9088, 97196, 60
9089, 97281, 60
9090, 97533, 60
9091, 97665, 60
9092, 97826, 60
9093, 98146, 60
9094, 98156, 60
9095, 98388, 60
9096, 98684, 60
9097, 98734, 60
9098, 99188, 60
9099, 99283, 60
9100, 100068, 60
9101, 100350, 60
9102, 100513, 60
9103, 100979, 60
9104, 101282, 60
9105, 101406, 60
9106, 101697, 60
9107, 102023, 60
9108, 102321, 60
9109, 102710, 60
9110, 103027, 60
9111, 103630, 60
9112, 103823, 60
9113, 104297, 60
9114, 104733, 60
9115, 105194, 60
9116, 105306, 60
9117, 105609, 60
9118, 105822, 60
9119, 106232, 60
9120, 106589, 60
9121, 106971, 60
9122, 107282, 60
9123, 107826, 60
9124, 108081, 60
9125, 103444, 60
9126, 102808, 60
9127, 102291, 60
9128, 102182, 60
9129, 101368, 60
9130, 100894, 60
9131, 100408, 60
9132, 100148, 60
9133, 99440, 60
9134, 98872, 60
9135, 98630, 60
9136, 98098, 60
9137, 97654, 60
9138, 97192, 60
9139, 96820, 60
9140, 96459, 60
9141, 96028, 60
9142, 95780, 60
9143, 95616, 60
9144, 95504, 60
9145, 95232, 60
9146, 94841, 60
9147, 94505, 60
9148, 94358, 60
9149, 94066, 60
9150, 92958, 60
9151, 92917, 60
9152, 92713, 60
9153, 92688, 60
9154, 92595, 60
9155, 92592, 60
9156, 92560, 60
9157, 92471, 60
9158, 92433, 60
9159, 92379, 60
9160, 92473, 60
9161, 92536, 60
9162, 92444, 60
9163, 92579, 60
9164, 92694, 60
9165, 92779, 60
9166, 92960, 60
9167, 92939, 60
9168, 93329, 60
9169, 93263, 60
9170, 93472, 60
9171, 93444, 60
9172, 93731, 60
9173, 93821, 60
9174, 94010, 60
9175, 94795, 60
9176, 95204, 60
9177, 95190, 60
9178, 95621, 60
9179, 95983, 60
9180, 96055, 60
9181, 96301, 60
9182, 96431, 60
9183, 96898, 60
9184, 96973, 60
9185, 97329, 60
9186, 97670, 60
9187, 98050, 60
9188, 98293, 60
9189, 98475, 60
9190, 98820, 60
9191, 99240, 60
9192, 99687, 60
9193, 99912, 60
9194, 100171, 60
9195, 100603, 60
9196, 100999, 60
9197, 101330, 60
9198, 101700, 60
9199, 102167, 60
9200, 103543, 60
9201, 102969, 60
9202, 102422, 60
9203, 101878, 60
9204, 101422, 60
9205, 100702, 60
9206, 100034, 60
9207, 99613, 60
9208, 99065, 60
9209, 98542, 60
9210, 98066, 60
9211, 97513, 60
9212, 97035, 60
9213, 96774, 60
9214, 96217, 60
9215, 95661, 60
9216, 95097, 60
9217, 94684, 60
9218, 94251, 60
9219, 93879, 60
9220, 93701, 60
9221, 93384, 60
9222, 92938, 60
9223, 92632, 60
9224, 92370, 60
9225, 90509, 60
9226, 90314, 60
9227, 90273, 60
9228, 89894, 60
9229, 89555, 60
9230, 89428, 60
9231, 89511, 60
9232, 89218, 60
9233, 89126, 60
9234, 88853, 60
9235, 88961, 60
9236, 88813, 60
9237, 88947, 60
9238, 88788, 60
9239, 88862, 60
9240, 88735, 60
9241, 88741, 60
9242, 88706, 60
9243, 88833, 60
9244, 88915, 60
9245, 88867, 60
9246, 89027, 60
9247, 89184, 60
9248, 89141, 60
9249, 89339, 60
9250, 89783, 60
9251, 90108, 60
9252, 90180, 60
9253, 90697, 60
9254, 90973, 60
9255, 91037, 60
9256, 91276, 60
9257, 91402, 60
9258, 91602, 60
9259, 91975, 60
9260, 92039, 60
9261, 92474, 60
9262, 92613, 60
9263, 92994, 60
9264, 93344, 60
9265, 93796, 60
9266, 94027, 60
9267, 94539, 60
9268, 94710, 60
9269, 95214, 60
9270, 95537, 60
9271, 95961, 60
9272, 96253, 60
9273, 96702, 60
9274, 97104, 60
9275, 98537, 60
9276, 98816, 60
9277, 99116, 60
9278, 99636, 60
9279, 100043, 60
9280, 100311, 60
9281, 100583, 60
9282, 100663, 60
9283, 100639, 60
9284, 100358, 60
9285, 100132, 60
9286, 99815, 60
9287, 99228, 60
9288, 98968, 60
9289, 98651, 60
9290, 97938, 60
9291, 97597, 60
9292, 96972, 60
9293, 96522, 60
9294, 96092, 60
9295, 95839, 60
9296, 95587, 60
9297, 95083, 60
9298, 94653, 60
9299, 94407, 60
9300, 93102, 60
9301, 92886, 60
9302, 92763, 60
9303, 92370, 60
9304, 92237, 60
9305, 92019, 60
9306, 91893, 60
9307, 91631, 60
9308, 91438, 60
9309, 91361, 60
9310, 91220, 60
9311, 90944, 60
9312, 90701, 60
9313, 90500, 60
9314, 90468, 60
9315, 90496, 60
9316, 90513, 60
9317, 90260, 60
9318, 90260, 60
9319, 90193, 60
9320, 90011, 60
9321, 89927, 60
9322, 89917, 60
9323, 89903, 60
9324, 89894, 60
9325, 93289, 60
9326, 93537, 60
9327, 93746, 60
9328, 94112, 60
9329, 94468, 60
9330, 94767, 60
9331, 94826, 60
9332, 95101, 60
9333, 95562, 60
9334, 95775, 60
9335, 96259, 60
9336, 96748, 60
9337, 96860, 60
9338, 97160, 60
9339, 97634, 60
9340, 97973, 60
9341, 98142, 60
9342, 98654, 60
9343, 98862, 60
9344, 99350, 60
9345, 99636, 60
9346, 100275, 60
9347, 100502, 60
9348, 100782, 60
9349, 101252, 60
9350, 103126, 60
9351, 103499, 60
9352, 103914, 60
9353, 104329, 60
9354, 104638, 60
9355, 104596, 60
9356, 104567, 60
9357, 104460, 60
9358, 104164, 60
9359, 103583, 60
9360, 103205, 60
9361, 102788, 60
9362, 101997, 60
9363, 101548, 60
9364, 101017, 60
9365, 100423, 60
9366, 100046, 60
9367, 99516, 60
9368, 99116, 60
9369, 98851, 60
9370, 98302, 60
9371, 97828, 60
9372, 97372, 60
9373, 96854, 60
9374, 96507, 60
9375, 94790, 60
9376, 94768, 60
9377, 94389, 60
9378, 94133, 60
9379, 93850, 60
9380, 93695, 60
9381, 93482, 60
9382, 93068, 60
9383, 92711, 60
9384, 92437, 60
9385, 92278, 60
9386, 92031, 60
9387, 92038, 60
9388, 91726, 60
9389, 91577, 60
9390, 91491, 60
9391, 91200, 60
9392, 91110, 60
9393, 91012, 60
9394, 90970, 60
9395, 90917, 60
9396, 90934, 60
9397, 90788, 60
9398, 90719, 60
9399, 90614, 60
9400, 91000, 60
9401, 91044, 60
9402, 91392, 60
9403, 91555, 60
9404, 91591, 60
9405, 91816, 60
9406, 91945, 60
9407, 92018, 60
9408, 92322, 60
9409, 92326, 60
9410, 92445, 60
9411, 92829, 60
9412, 92936, 60
9413, 93118, 60
9414, 93375, 60
9415, 93685, 60
9416, 93883, 60
9417, 93898, 60
9418, 94221, 60
9419, 94433, 60
9420, 94813, 60
9421, 95017, 60
9422, 95237, 60
9423, 95457, 60
9424, 95963, 60
9425, 96973, 60
9426, 97159, 60
9427, 97478, 60
9428, 97904, 60
9429, 98092, 60
9430, 98583, 60
9431, 98904, 60
9432, 99331, 60
9433, 99667, 60
9434, 99960, 60
9435, 100343, 60
9436, 100713, 60
9437, 100997, 60
9438, 101389, 60
9439, 101892, 60
9440, 102180, 60
9441, 102586, 60
9442, 102841, 60
9443, 103397, 60
9444, 103856, 60
9445, 104388, 60
9446, 104576, 60
9447, 104868, 60
9448, 105025, 60
9449, 104986, 60
9450, 97693, 60
9451, 97424, 60
9452, 96868, 60
9453, 96455, 60
9454, 96056, 60
9455, 95695, 60
9456, 95441, 60
9457, 95167, 60
9458, 94755, 60
9459, 94634, 60
9460, 94293, 60
9461, 93998, 60
9462, 93558, 60
9463, 93383, 60
9464, 93005, 60
9465, 92858, 60
9466, 92923, 60
9467, 92515, 60
9468, 92252, 60
9469, 92022, 60
9470, 91943, 60
9471, 91872, 60
9472, 91637, 60
9473, 91501, 60
9474, 91442, 60
9475, 91531, 60
9476, 91631, 60
9477, 91640, 60
9478, 91756, 60
9479, 91896, 60
9480, 91785, 60
9481, 92043, 60
9482, 92327, 60
9483, 92438, 60
9484, 92494, 60
9485, 92746, 60
9486, 92987, 60
9487, 93270, 60
9488, 93505, 60
9489, 93802, 60
9490, 94091, 60
9491, 94367, 60
9492, 94433, 60
9493, 94705, 60
9494, 94991, 60
9495, 95348, 60
9496, 95691, 60
9497, 96032, 60
9498, 96436, 60
9499, 96685, 60
9500, 97986, 60
9501, 98166, 60
9502, 98780, 60
9503, 99260, 60
9504, 99483, 60
9505, 99966, 60
9506, 100320, 60
9507, 100691, 60
9508, 101065, 60
9509, 101378, 60
9510, 101657, 60
9511, 102233, 60
9512, 102637, 60
9513, 103065, 60
9514, 103619, 60
9515, 104173, 60
9516, 104581, 60
9517, 104680, 60
9518, 104945, 60
9519, 105011, 60
9520, 105064, 60
9521, 105071, 60
9522, 105021, 60
9523, 104560, 60
9524, 104119, 60
9525, 101887, 60
9526, 101442, 60
9527, 101127, 60
9528, 100711, 60
9529, 100274, 60
9530, 100163, 60
9531, 99924, 60
9532, 99482, 60
9533, 99079, 60
9534, 98550, 60
9535, 98263, 60
9536, 98013, 60
9537, 97845, 60
9538, 97582, 60
9539, 97337, 60
9540, 97207, 60
9541, 97045, 60
9542, 96841, 60
9543, 96544, 60
9544, 96437, 60
9545, 96402, 60
9546, 96393, 60
9547, 96162, 60
9548, 95996, 60
9549, 95721, 60
9550, 95823, 61
9551, 96078, 61
9552, 96277, 61
9553, 96227, 61
9554, 96328, 61
9555, 96642, 61
9556, 96848, 61
9557, 97031, 61
9558, 97221, 61
9559, 97440, 61
9560, 97506, 61
9561, 97902, 61
9562, 98062, 61
9563, 98400, 61
9564, 98586, 61
9565, 98627, 61
9566, 99137, 61
9567, 99491, 61
9568, 99656, 61
9569, 100007, 61
9570, 100403, 61
9571, 100683, 61
9572, 100860, 61
9573, 101237, 61
9574, 101495, 61
9575, 102373, 61
9576, 102721, 61
9577, 103252, 61
9578, 103535, 61
9579, 103980, 61
9580, 104147, 61
9581, 104545, 61
9582, 104943, 61
9583, 105371, 61
9584, 105774, 61
9585, 106182, 61
9586, 106619, 61
9587, 107002, 61
9588, 107375, 61
9589, 107738, 61
9590, 108311, 61
9591, 108684, 61
9592, 109206, 61
9593, 109449, 61
9594, 109795, 61
9595, 110083, 61
9596, 110326, 61
9597, 110421, 61
9598, 110177, 61
9599, 109968, 61
9600, 108233, 61
9601, 107699, 61
9602, 107179, 61
9603, 106339, 61
9604, 105845, 61
9605, 105497, 61
9606, 104900, 61
9607, 104518, 61
9608, 104274, 61
9609, 103941, 61
9610, 103256, 61
9611, 102691, 61
9612, 102157, 61
9613, 101955, 61
9614, 101515, 61
9615, 100956, 61
9616, 100434, 61
9617, 100158, 61
9618, 99726, 61
9619, 99355, 61
9620, 99201, 61
9621, 98991, 61
9622, 98610, 61
9623, 98297, 61
9624, 98129, 61
9625, 95391, 61
9626, 95550, 61
9627, 95613, 61
9628, 95638, 61
9629, 95671, 61
9630, 95685, 61
9631, 95925, 61
9632, 95941, 61
9633, 96034, 61
9634, 96200, 61
9635, 96393, 61
9636, 96492, 61
9637, 96493, 61
9638, 96640, 61
9639, 96686, 61
9640, 96946, 61
9641, 97297, 61
9642, 97410, 61
9643, 97732, 61
9644, 97797, 61
9645, 97931, 61
9646, 97997, 61
9647, 98498, 61
9648, 98569, 61
9649, 98870, 61
9650, 99712, 61
9651, 100134, 61
9652, 100255, 61
9653, 100589, 61
9654, 100824, 61
9655, 101321, 61
9656, 101641, 61
9657, 101747, 61
9658, 102414, 61
9659, 102568, 61
9660, 102733, 61
9661, 103157, 61
9662, 103456, 61
9663, 103847, 61
9664, 104287, 61
9665, 104864, 61
9666, 105306, 61
9667, 105435, 61
9668, 105748, 61
9669, 106033, 61
9670, 106439, 61
9671, 106654, 61
9672, 107034, 61
9673, 107324, 61
9674, 107303, 61
9675, 106522, 61
9676, 105934, 61
9677, 105242, 61
9678, 104825, 61
9679, 104286, 61
9680, 103611, 61
9681, 103183, 61
9682, 102601, 61
9683, 102011, 61
9684, 101275, 61
9685, 100919, 61
9686, 100483, 61
9687, 99958, 61
9688, 99400, 61
9689, 98960, 61
9690, 98631, 61
9691, 98137, 61
9692, 97753, 61
9693, 97415, 61
9694, 96984, 61
9695, 96767, 61
9696, 96487, 61
9697, 96059, 61
9698, 95738, 61
9699, 95535, 61
9700, 92617, 60
9701, 92753, 60
9702, 92888, 60
9703, 92814, 60
9704, 92906, 60
9705, 93068, 60
9706, 93151, 60
9707, 93175, 60
9708, 93289, 60
9709, 93414, 60
9710, 93759, 60
9711, 93885, 60
9712, 93884, 60
9713, 94243, 60
9714, 94264, 60
9715, 94537, 60
9716, 94857, 60
9717, 94929, 60
9718, 94966, 60
9719, 95235, 60
9720, 95488, 60
9721, 96014, 60
9722, 96161, 60
9723, 96262, 60
9724, 96548, 60
9725, 96734, 60
9726, 97118, 60
9727, 97407, 60
9728, 97697, 60
9729, 98056, 60
9730, 98504, 60
9731, 98685, 60
9732, 99022, 60
9733, 99347, 60
9734, 99845, 60
9735, 100100, 60
9736, 100379, 60
9737, 100725, 60
9738, 101236, 60
9739, 101518, 60
9740, 101845, 60
9741, 102264, 60
9742, 102647, 60
9743, 103195, 60
9744, 103552, 60
9745, 103987, 60
9746, 104024, 60
9747, 104186, 60
9748, 104235, 60
9749, 104110, 60
9750, 103760, 60
9751, 103329, 60
9752, 102927, 60
9753, 102359, 60
9754, 101815, 60
9755, 101274, 60
9756, 100694, 60
9757, 100300, 60
9758, 99987, 60
9759, 99278, 60
9760, 98751, 60
9761, 98156, 60
9762, 97763, 60
9763, 97559, 60
9764, 96994, 60
9765, 96622, 60
9766, 96206, 60
9767, 95985, 60
9768, 95590, 60
9769, 95212, 60
9770, 94768, 60
9771, 94605, 60
9772, 94573, 60
9773, 94204, 60
9774, 93756, 60
9775, 92128, 60
9776, 92184, 60
9777, 92056, 60
9778, 91866, 60
9779, 91717, 60
9780, 91647, 60
9781, 91529, 60
9782, 91657, 60
9783, 91561, 60
9784, 91682, 60
9785, 91645, 60
9786, 91834, 60
9787, 91942, 60
9788, 91763, 60
9789, 91803, 60
9790, 91920, 60
9791, 92135, 60
9792, 92266, 60
9793, 92265, 60
9794, 92594, 60
9795, 92764, 60
9796, 92855, 60
9797, 93107, 60
9798, 93221, 60
9799, 93568, 60
9800, 99714, 60
9801, 100287, 60
9802, 100486, 60
9803, 101006, 60
9804, 101412, 60
9805, 102025, 60
9806, 102167, 60
9807, 102349, 60
9808, 102859, 60
9809, 103327, 60
9810, 103727, 60
9811, 104208, 60
9812, 104695, 60
9813, 105245, 60
9814, 105592, 60
9815, 105996, 60
9816, 106316, 60
9817, 106486, 60
9818, 106484, 60
9819, 106544, 60
9820, 106264, 60
9821, 105893, 60
9822, 105572, 60
9823, 105175, 60
9824, 104564, 60
9825, 102810, 60
9826, 102355, 60
9827, 101719, 60
9828, 101013, 60
9829, 100711, 60
9830, 100288, 60
9831, 99887, 60
9832, 99329, 60
9833, 98907, 60
9834, 98424, 60
9835, 97775, 60
9836, 97492, 60
9837, 97052, 60
9838, 96775, 60
9839, 96305, 60
9840, 95996, 60
9841, 95781, 60
9842, 95349, 60
9843, 95014, 60
9844, 94904, 60
9845, 94560, 60
9846, 94279, 60
9847, 93883, 60
9848, 93812, 60
9849, 93560, 60
9850, 91756, 60
9851, 91657, 60
9852, 91951, 60
9853, 92104, 60
9854, 92241, 60
9855, 92349, 60
9856, 92290, 60
9857, 92587, 60
9858, 92674, 60
9859, 92814, 60
9860, 93022, 60
9861, 93122, 60
9862, 93238, 60
9863, 93273, 60
9864, 93508, 60
9865, 93661, 60
9866, 93718, 60
9867, 94322, 60
9868, 94542, 60
9869, 94714, 60
9870, 95072, 60
9871, 95310, 60
9872, 95608, 60
9873, 95847, 60
9874, 96269, 60
9875, 96653, 60
9876, 96820, 60
9877, 97016, 60
9878, 97424, 60
9879, 97725, 60
9880, 98078, 60
9881, 98222, 60
9882, 98529, 60
9883, 98899, 60
9884, 100676, 60
9885, 100676, 60
9886, 100306, 60
9887, 100491, 60
9888, 101044, 60
9889, 101185, 60
9890, 101796, 60
9891, 102002, 60
9892, 102484, 60
9893, 102691, 60
9894, 103179, 60
9895, 103842, 60
9896, 103960, 60
9897, 104346, 60
9898, 104824, 60
9899, 104874, 60
9900, 104849, 60
9901, 104697, 60
9902, 104676, 60
9903, 104216, 60
9904, 103877, 60
9905, 103486, 60
9906, 102999, 60
9907, 102294, 60
9908, 101840, 60
9909, 101211, 60
9910, 100665, 60
9911, 100192, 60
9912, 99900, 60
9913, 99140, 60
9914, 98745, 60
9915, 98340, 60
9916, 97710, 60
9917, 97402, 60
9918, 96918, 60
9919, 96471, 60
9920, 96204, 60
9921, 95936, 60
9922, 95466, 60
9923, 95252, 60
9924, 94934, 60
9925, 92480, 60
9926, 92314, 60
9927, 92211, 60
9928, 91887, 60
9929, 91835, 60
9930, 91722, 60
9931, 91293, 60
9932, 91237, 60
9933, 91235, 60
9934, 91080, 60
9935, 91067, 60
9936, 91001, 60
9937, 90917, 60
9938, 90994, 60
9939, 91038, 60
9940, 91257, 60
9941, 91198, 60
9942, 91379, 60
9943, 91539, 60
9944, 91494, 60
9945, 91599, 60
9946, 91803, 60
9947, 92034, 60
9948, 91966, 60
9949, 92045, 60
9950, 93520, 60
9951, 93735, 60
9952, 93869, 60
9953, 94295, 60
9954, 94486, 60
9955, 94749, 60
9956, 95089, 60
9957, 95319, 60
9958, 95638, 60
9959, 95915, 60
9960, 96196, 60
9961, 96630, 60
9962, 96863, 60
9963, 97350, 60
9964, 97640, 60
9965, 98073, 60
9966, 98142, 60
9967, 98729, 60
9968, 99279, 60
9969, 99738, 60
9970, 100072, 60
9971, 100607, 60
9972, 100846, 60
9973, 101214, 60
9974, 101611, 60
9975, 103896, 60
9976, 104151, 60
9977, 104627, 60
9978, 105042, 60
9979, 105246, 60
9980, 105021, 60
9981, 105064, 60
9982, 105148, 60
9983, 104920, 60
9984, 104378, 60
9985, 103777, 60
9986, 103332, 60
9987, 102868, 60
9988, 102330, 60
9989, 101790, 60
9990, 101454, 60
9991, 100694, 60
9992, 100694, 60
9993, 100249, 60
9994, 99631, 60
9995, 99393, 60
9996, 99205, 60
9997, 98628, 60
9998, 98209, 60
9999, 98044, 60
10000, 96590, 60
10001, 96281, 60
10002, 96166, 60
10003, 95942, 60
10004, 95744, 60
10005, 95424, 60
10006, 95357, 60
10007, 95170, 60
10008, 94967, 60
10009, 94708, 60
10010, 94651, 60
10011, 94398, 60
10012, 94295, 60
10013, 94111, 60
10014, 94146, 60
10015, 94084, 60
10016, 93959, 60
10017, 93870, 60
10018, 93875, 60
10019, 93811, 60
10020, 93700, 60
10021, 93908, 60
10022, 93938, 60
10023, 94031, 60
10024, 94076, 60
10025, 97249, 60
10026, 97541, 60
10027, 97655, 60
10028, 98256, 60
10029, 98375, 60
10030, 98731, 60
10031, 98904, 60
10032, 99301, 60
10033, 99684, 60
10034, 100056, 60
10035, 100341, 60
10036, 100832, 60
10037, 101128, 60
10038, 101727, 60
10039, 101935, 60
10040, 102324, 60
10041, 102632, 60
10042, 103199, 60
10043, 103479, 60
10044, 103717, 60
10045, 104055, 60
10046, 104696, 60
10047, 105252, 60
10048, 105595, 60
10049, 106054, 60
10050, 107303, 60
10051, 107683, 60
10052, 108095, 60
10053, 108577, 60
10054, 108908, 60
10055, 109698, 60
10056, 110103, 60
10057, 110609, 60
10058, 110940, 60
10059, 111194, 60
10060, 111351, 60
10061, 111305, 60
10062, 111250, 60
10063, 111077, 60
10064, 110587, 60
10065, 110054, 60
10066, 109719, 60
10067, 109177, 60
10068, 108675, 60
10069, 108223, 60
10070, 107531, 60
10071, 107172, 60
10072, 106806, 60
10073, 106418, 60
10074, 105781, 60
10075, 104392, 60
10076, 103871, 60
10077, 103296, 60
10078, 102635, 60
10079, 102466, 60
10080, 102300, 60
10081, 101826, 60
10082, 101607, 60
10083, 101412, 60
10084, 101099, 60
10085, 100781, 60
10086, 100478, 60
10087, 100063, 60
10088, 99818, 60
10089, 99592, 60
10090, 99449, 60
10091, 99217, 60
10092, 99033, 60
10093, 98752, 60
10094, 98640, 60
10095, 98549, 60
10096, 98154, 60
10097, 97943, 60
10098, 97802, 60
10099, 97596, 60
10100, 98349, 60
10101, 98595, 60
10102, 98693, 60
10103, 98891, 60
10104, 98871, 60
10105, 99087, 60
10106, 99239, 60
10107, 99368, 60
10108, 99712, 60
10109, 99881, 60
10110, 100271, 60
10111, 100516, 60
10112, 100600, 60
10113, 100957, 60
10114, 101273, 60
10115, 101541, 60
10116, 101782, 60
10117, 102007, 60
10118, 102286, 60
10119, 102582, 60
10120, 103010, 60
10121, 103321, 60
10122, 103620, 60
10123, 103959, 60
10124, 104212, 60
10125, 104764, 60
10126, 105133, 60
10127, 105597, 60
10128, 105871, 60
10129, 106084, 60
10130, 106424, 60
10131, 106827, 60
10132, 107187, 60
10133, 107501, 60
10134, 107847, 60
10135, 108204, 60
10136, 108818, 60
10137, 109110, 60
10138, 109524, 60
10139, 109565, 60
10140, 110010, 60
10141, 109972, 60
10142, 110062, 60
10143, 109780, 60
10144, 109389, 60
10145, 109222, 60
10146, 108640, 60
10147, 108273, 60
10148, 107788, 60
10149, 107499, 60
10150, 104756, 60
10151, 104386, 60
10152, 103973, 60
10153, 103623, 60
10154, 103227, 60
10155, 102866, 60
10156, 102547, 60
10157, 102388, 60
10158, 102002, 60
10159, 101773, 60
10160, 101678, 60
10161, 101455, 60
10162, 101133, 60
10163, 100913, 60
10164, 100694, 60
10165, 100597, 60
10166, 100399, 60
10167, 100191, 60
10168, 100114, 60
10169, 99864, 60
10170, 99709, 60
10171, 99541, 60
10172, 99439, 60
10173, 99172, 60
10174, 99160, 60
10175, 100248, 60
10176, 100670, 60
10177, 100875, 60
10178, 100888, 60
10179, 101166, 60
10180, 101556, 60
10181, 101749, 60
10182, 102012, 60
10183, 102403, 60
10184, 102658, 60
10185, 102880, 60
10186, 103416, 60
10187, 103529, 60
10188, 104035, 60
10189, 104262, 60
10190, 104580, 60
10191, 104751, 60
10192, 105257, 60
10193, 105771, 60
10194, 106141, 60
10195, 106403, 60
10196, 106732, 60
10197, 107290, 60
10198, 107515, 60
10199, 108040, 60
10200, 108362, 60
10201, 108836, 60
10202, 109354, 60
10203, 109838, 60
10204, 110214, 60
10205, 110898, 60
10206, 111214, 60
10207, 111921, 60
10208, 112486, 60
10209, 112595, 60
10210, 112980, 60
10211, 113549, 60
10212, 114001, 60
10213, 113985, 60
10214, 114050, 60
10215, 113845, 60
10216, 113643, 60
10217, 113427, 60
10218, 113063, 60
10219, 112599, 60
10220, 112168, 60
10221, 111549, 60
10222, 111098, 60
10223, 110595, 60
10224, 110083, 60
10225, 108516, 60
10226, 108225, 60
10227, 107558, 60
10228, 107169, 60
10229, 106663, 60
10230, 106435, 60
10231, 106130, 60
10232, 105644, 60
10233, 105325, 60
10234, 104949, 60
10235, 104688, 60
10236, 104546, 60
10237, 104200, 60
10238, 104086, 60
10239, 103696, 60
10240, 103417, 60
10241, 103182, 60
10242, 103056, 60
10243, 102871, 60
10244, 102582, 60
10245, 102121, 60
10246, 102056, 60
10247, 101870, 60
10248, 101693, 60
10249, 101513, 60
10250, 101851, 60
10251, 102063, 60
10252, 102220, 60
10253, 102395, 60
10254, 102630, 60
10255, 102889, 60
10256, 103173, 60
10257, 103567, 60
10258, 103521, 60
10259, 103604, 60
10260, 104204, 60
10261, 104220, 60
10262, 104176, 60
10263, 104629, 60
10264, 105040, 60
10265, 105181, 60
10266, 105457, 60
10267, 105807, 60
10268, 106190, 60
10269, 106360, 60
10270, 106656, 60
10271, 107006, 60
10272, 107294, 60
10273, 107760, 60
10274, 107946, 60
10275, 108163, 60
10276, 108800, 60
10277, 108960, 60
10278, 109341, 60
10279, 109672, 60
10280, 110079, 60
10281, 110374, 60
10282, 110745, 60
10283, 111028, 60
10284, 111598, 60
10285, 111887, 60
10286, 112433, 60
10287, 112721, 60
10288, 112962, 60
10289, 113570, 60
10290, 113690, 60
10291, 113917, 60
10292, 113803, 60
10293, 113803, 60
10294, 113764, 60
10295, 113405, 60
10296, 112924, 60
10297, 112490, 60
10298, 111895, 60
10299, 111209, 60
10300, 107786, 60
10301, 107241, 60
10302, 106708, 60
10303, 106186, 60
10304, 105924, 60
10305, 105488, 60
10306, 105034, 60
10307, 104630, 60
10308, 104100, 60
10309, 103749, 60
10310, 103335, 60
10311, 102842, 60
10312, 102630, 60
10313, 102312, 60
10314, 102221, 60
10315, 101718, 60
10316, 101397, 60
10317, 101225, 60
10318, 100815, 60
10319, 100436, 60
10320, 100227, 60
10321, 100242, 60
10322, 100080, 60
10323, 99782, 60
10324, 99521, 60
10325, 99387, 62
10326, 99555, 62
10327, 99628, 62
10328, 99786, 62
10329, 100128, 62
10330, 100339, 62
10331, 100626, 62
10332, 100669, 62
10333, 101182, 62
10334, 101396, 62
10335, 101405, 62
10336, 101505, 62
10337, 101640, 62
10338, 102227, 62
10339, 102338, 62
10340, 102747, 62
10341, 102977, 62
10342, 103188, 62
10343, 103478, 62
10344, 103811, 62
10345, 104069, 62
10346, 104807, 62
10347, 105016, 62
10348, 105154, 62
10349, 105467, 62
10350, 105706, 62
10351, 106183, 62
10352, 106718, 62
10353, 107015, 62
10354, 107672, 62
10355, 108026, 62
10356, 108218, 62
10357, 108587, 62
10358, 108992, 62
10359, 109466, 62
10360, 109925, 62
10361, 110129, 62
10362, 110470, 62
10363, 110469, 62
10364, 110467, 62
10365, 110276, 62
10366, 110178, 62
10367, 109676, 62
10368, 109359, 62
10369, 108960, 62
10370, 108443, 62
10371, 108115, 62
10372, 107457, 62
10373, 107143, 62
10374, 106779, 62
10375, 106236, 62
10376, 105979, 62
10377, 105768, 62
10378, 105304, 62
10379, 104862, 62
10380, 104516, 62
10381, 104377, 62
10382, 104017, 62
10383, 103710, 62
10384, 103297, 62
10385, 103210, 62
10386, 102976, 62
10387, 102703, 62
10388, 102497, 62
10389, 102576, 62
10390, 102418, 62
10391, 102038, 62
10392, 101890, 62
10393, 101770, 62
10394, 101818, 62
10395, 101600, 62
10396, 101401, 62
10397, 101309, 62
10398, 101169, 62
10399, 101099, 62
10400, 103814, 62
10401, 104099, 62
10402, 104422, 62
10403, 104688, 62
10404, 104920, 62
10405, 105290, 62
10406, 105546, 62
10407, 105823, 62
10408, 106289, 62
10409, 106694, 62
10410, 107088, 62
10411, 107342, 62
10412, 107547, 62
10413, 107907, 62
10414, 108271, 62
10415, 108748, 62
10416, 108966, 62
10417, 109482, 62
10418, 109774, 62
10419, 110267, 62
10420, 110534, 62
10421, 110791, 62
10422, 111170, 62
10423, 111744, 62
10424, 112183, 62
10425, 112616, 62
10426, 112882, 62
10427, 112668, 62
10428, 112451, 62
10429, 112418, 62
10430, 112049, 62
10431, 111637, 62
10432, 111203, 62
10433, 110746, 62
10434, 110306, 62
10435, 109657, 62
10436, 109292, 62
10437, 108849, 62
10438, 108383, 62
10439, 107872, 62
10440, 107390, 62
10441, 106958, 62
10442, 106600, 62
10443, 106064, 62
10444, 105845, 62
10445, 105319, 62
10446, 104973, 62
10447, 104447, 62
10448, 104235, 62
10449, 103944, 62
10450, 103415, 62
10451, 103292, 62
10452, 102963, 62
10453, 102790, 62
10454, 102491, 62
10455, 102513, 62
10456, 102031, 62
10457, 101773, 62
10458, 101553, 62
10459, 101449, 62
10460, 101217, 62
10461, 100994, 62
10462, 100815, 62
10463, 100542, 62
10464, 100283, 62
10465, 100307, 62
10466, 100371, 62
10467, 100374, 62
10468, 100159, 62
10469, 100038, 62
10470, 99817, 62
10471, 99725, 62
10472, 99936, 62
10473, 99853, 62
10474, 99869, 62
10475, 103903, 63
10476, 104095, 63
10477, 104416, 63
10478, 104918, 63
10479, 104995, 63
10480, 105305, 63
10481, 105626, 63
10482, 105996, 63
10483, 106281, 63
10484, 106732, 63
10485, 106862, 63
10486, 107347, 63
10487, 107711, 63
10488, 108031, 63
10489, 108450, 63
10490, 108841, 63
10491, 109019, 63
10492, 109432, 63
10493, 110009, 63
10494, 110419, 63
10495, 110724, 63
10496, 111207, 63
10497, 111522, 63
10498, 111496, 63
10499, 111567, 63
10500, 111514, 63
10501, 111216, 63
10502, 110669, 63
10503, 110367, 63
10504, 109817, 63
10505, 109288, 63
10506, 108535, 63
10507, 108191, 63
10508, 107525, 63
10509, 107020, 63
10510, 106596, 63
10511, 106295, 63
10512, 105687, 63
10513, 105189, 63
10514, 104435, 63
10515, 104027, 63
10516, 103791, 63
10517, 103025, 63
10518, 102697, 63
10519, 102134, 63
10520, 101466, 63
10521, 101183, 63
10522, 100789, 63
10523, 100514, 63
10524, 99952, 63
10525, 99728, 63
10526, 99331, 63
10527, 98941, 63
10528, 98571, 63
10529, 98335, 63
10530, 98089, 63
10531, 97803, 63
10532, 97357, 63
10533, 97247, 63
10534, 97038, 63
10535, 96662, 63
10536, 96423, 63
10537, 96325, 63
10538, 95921, 63
10539, 95777, 63
10540, 95464, 63
10541, 95489, 63
10542, 95522, 63
10543, 95184, 63
10544, 95125, 63
10545, 95016, 63
10546, 95078, 63
10547, 94892, 63
10548, 94986, 63
10549, 94862, 63
10550, 94993, 63
10551, 94900, 63
10552, 94896, 63
10553, 95067, 63
10554, 94804, 63
10555, 94932, 63
10556, 95233, 63
10557, 95279, 63
10558, 95335, 63
10559, 95315, 63
10560, 95438, 63
10561, 95496, 63
10562, 95932, 63
10563, 95858, 63
10564, 96095, 63
10565, 96292, 63
10566, 96471, 63
10567, 96482, 63
10568, 96479, 63
10569, 96948, 63
10570, 97069, 63
10571, 97290, 63
10572, 97536, 63
10573, 97894, 63
10574, 98200, 63
10575, 102122, 63
10576, 102552, 63
10577, 102780, 63
10578, 103206, 63
10579, 103616, 63
10580, 104120, 63
10581, 104291, 63
10582, 104588, 63
10583, 104290, 63
10584, 104317, 63
10585, 104023, 63
10586, 103692, 63
10587, 103223, 63
10588, 102728, 63
10589, 102145, 63
10590, 101738, 63
10591, 101002, 63
10592, 100400, 63
10593, 99871, 63
10594, 99195, 63
10595, 98655, 63
10596, 98178, 63
10597, 97464, 63
10598, 96958, 63
10599, 96518, 63
10600, 96022, 63
10601, 95514, 63
10602, 95067, 63
10603, 94740, 63
10604, 94182, 63
10605, 93766, 63
10606, 93146, 63
10607, 92925, 63
10608, 92648, 63
10609, 92191, 63
10610, 91808, 63
10611, 91510, 63
10612, 91238, 63
10613, 91039, 63
10614, 90634, 63
10615, 90347, 63
10616, 90121, 63
10617, 89623, 63
10618, 89497, 63
10619, 89265, 63
10620, 88990, 63
10621, 88772, 63
10622, 88469, 63
10623, 88572, 63
10624, 88390, 63
10625, 87664, 63
10626, 87980, 63
10627, 88004, 63
10628, 88087, 63
10629, 88158, 63
10630, 88193, 63
10631, 88406, 63
10632, 88492, 63
10633, 88524, 63
10634, 88720, 63
10635, 88990, 63
10636, 89057, 63
10637, 89420, 63
10638, 89567, 63
10639, 89678, 63
10640, 89966, 63
10641, 90336, 63
10642, 90452, 63
10643, 90548, 63
10644, 90819, 63
10645, 91415, 63
10646, 91485, 63
10647, 91591, 63
10648, 92130, 63
10649, 92397, 63
10650, 97858, 63
10651, 97857, 63
10652, 97602, 63
10653, 97130, 63
10654, 96748, 63
10655, 96337, 63
10656, 95695, 63
10657, 95152, 63
10658, 94656, 63
10659, 94080, 63
10660, 93394, 63
10661, 92868, 63
10662, 92302, 63
10663, 91922, 63
10664, 91274, 63
10665, 91153, 63
10666, 90629, 63
10667, 90142, 63
10668, 89562, 63
10669, 89062, 63
10670, 88620, 63
10671, 88435, 63
10672, 87971, 63
10673, 87630, 63
10674, 87328, 63
10675, 87003, 63
10676, 86871, 63
10677, 86506, 63
10678, 86243, 63
10679, 86049, 63
10680, 85844, 63
10681, 85714, 63
10682, 85411, 63
10683, 85218, 63
10684, 84988, 63
10685, 84772, 63
10686, 84625, 63
10687, 84412, 63
10688, 84325, 63
10689, 84107, 63
10690, 83957, 63
10691, 83956, 63
10692, 84203, 63
10693, 83976, 63
10694, 83787, 63
10695, 83971, 63
10696, 83933, 63
10697, 83869, 63
10698, 83871, 63
10699, 83830, 63
10700, 85344, 63
10701, 85597, 63
10702, 85719, 63
10703, 85865, 63
10704, 86166, 63
10705, 86617, 63
10706, 86844, 63
10707, 87010, 63
10708, 87025, 63
10709, 87290, 63
10710, 87672, 63
10711, 88016, 63
10712, 88420, 63
10713, 88771, 63
10714, 88812, 63
10715, 89241, 63
10716, 89461, 63
10717, 89864, 63
10718, 90412, 63
10719, 90631, 63
10720, 91105, 63
10721, 91418, 63
10722, 91786, 63
10723, 92153, 63
10724, 92582, 63
10725, 95828, 63
10726, 95387, 63
10727, 94776, 63
10728, 94241, 63
10729, 93609, 63
10730, 92981, 63
10731, 92393, 63
10732, 91855, 63
10733, 91386, 63
10734, 90698, 63
10735, 90268, 63
10736, 89755, 63
10737, 89474, 63
10738, 88959, 63
10739, 88394, 63
10740, 87975, 63
10741, 87574, 63
10742, 86981, 63
10743, 86781, 63
10744, 86236, 63
10745, 85718, 63
10746, 85456, 63
10747, 85162, 63
10748, 84640, 63
10749, 84431, 63
10750, 84246, 63
10751, 83839, 63
10752, 83657, 63
10753, 83473, 63
10754, 83139, 63
10755, 83017, 63
10756, 82743, 63
10757, 82456, 63
10758, 82370, 63
10759, 82213, 63
10760, 81969, 63
10761, 81828, 63
10762, 81680, 63
10763, 81812, 63
10764, 81793, 63
10765, 81595, 63
10766, 81632, 63
10767, 81632, 63
10768, 81655, 63
10769, 81600, 63
10770, 81594, 63
10771, 81644, 63
10772, 81749, 63
10773, 81821, 63
10774, 81921, 63
10775, 84041, 59
10776, 84252, 59
10777, 84374, 59
10778, 84680, 59
10779, 84952, 59
10780, 85286, 59
10781, 85435, 59
10782, 85824, 59
10783, 86180, 59
10784, 86401, 59
10785, 86772, 59
10786, 87066, 59
10787, 87377, 59
10788, 87657, 59
10789, 88075, 59
10790, 88376, 59
10791, 88768, 59
10792, 88972, 59
10793, 89204, 59
10794, 89809, 59
10795, 90100, 59
10796, 90506, 59
10797, 90874, 59
10798, 91146, 59
10799, 91634, 59
10800, 94961, 59
10801, 94591, 59
10802, 94014, 59
10803, 92751, 59
10804, 92751, 59
10805, 92185, 59
10806, 91557, 59
10807, 91473, 59
10808, 90494, 59
10809, 89957, 59
10810, 89344, 59
10811, 89034, 59
10812, 88487, 59
10813, 88027, 59
10814, 87585, 59
10815, 87022, 59
10816, 86605, 59
10817, 86153, 59
10818, 85792, 59
10819, 85336, 59
10820, 85044, 59
10821, 84853, 59
10822, 84418, 59
10823, 84167, 59
10824, 83841, 59
10825, 83536, 59
10826, 83534, 59
10827, 83218, 59
10828, 82804, 59
10829, 82109, 59
10830, 81942, 59
10831, 81741, 59
10832, 81452, 59
10833, 81379, 59
10834, 81331, 59
10835, 81082, 59
10836, 81073, 59
10837, 81020, 59
10838, 80919, 59
10839, 80881, 59
10840, 81059, 59
10841, 80914, 59
10842, 80936, 59
10843, 80944, 59
10844, 81190, 59
10845, 81129, 59
10846, 81347, 59
10847, 81490, 59
10848, 81616, 59
10849, 81789, 59
10850, 88284, 59
10851, 88587, 59
10852, 89000, 59
10853, 89181, 59
10854, 89819, 59
10855, 90228, 59
10856, 90570, 59
10857, 91113, 59
10858, 91323, 59
10859, 91848, 59
10860, 92377, 59
10861, 92770, 59
10862, 93214, 59
10863, 93790, 59
10864, 94245, 59
10865, 94740, 59
10866, 95214, 59
10867, 95750, 59
10868, 95935, 59
10869, 96402, 59
10870, 96902, 59
10871, 97131, 59
10872, 97254, 59
10873, 97161, 59
10874, 97160, 59
10875, 95606, 59
10876, 94901, 59
10877, 94685, 59
10878, 94091, 59
10879, 93800, 59
10880, 93192, 59
10881, 92644, 59
10882, 92226, 59
10883, 91797, 59
10884, 91384, 59
10885, 90869, 59
10886, 90614, 59
10887, 90169, 59
10888, 89705, 59
10889, 89401, 59
10890, 89127, 59
10891, 88878, 59
10892, 88500, 59
10893, 88130, 59
10894, 87827, 59
10895, 87385, 59
10896, 87215, 59
10897, 86902, 59
10898, 86752, 59
10899, 86652, 59
10900, 84397, 59
10901, 84444, 59
10902, 84416, 59
10903, 84648, 59
10904, 84810, 59
10905, 84954, 59
10906, 85070, 59
10907, 85027, 59
10908, 85021, 59
10909, 85258, 59
10910, 85404, 59
10911, 85744, 59
10912, 85794, 59
10913, 86007, 59
10914, 86119, 59
10915, 86403, 59
10916, 86818, 59
10917, 86967, 59
10918, 87211, 59
10919, 87480, 59
10920, 87943, 59
10921, 88400, 59
10922, 88494, 59
10923, 88560, 59
10924, 88981, 59
10925, 90854, 57
10926, 91326, 57
10927, 91636, 57
10928, 92116, 57
10929, 92399, 57
10930, 92763, 57
10931, 93228, 57
10932, 93532, 57
10933, 93955, 57
10934, 94471, 57
10935, 94900, 57
10936, 95331, 57
10937, 95789, 57
10938, 96132, 57
10939, 96521, 57
10940, 97075, 57
10941, 97567, 57
10942, 98074, 57
10943, 98498, 57
10944, 98929, 57
10945, 99364, 57
10946, 99780, 57
10947, 100224, 57
10948, 100688, 57
10949, 101031, 57
10950, 102026, 57
10951, 102687, 57
10952, 103011, 57
10953, 103324, 57
10954, 103652, 57
10955, 103605, 57
10956, 103546, 57
10957, 103604, 57
10958, 103161, 57
10959, 103238, 57
10960, 102473, 57
10961, 102038, 57
10962, 101364, 57
10963, 100926, 57
10964, 100281, 57
10965, 99856, 57
10966, 99476, 57
10967, 98592, 57
10968, 98486, 57
10969, 98017, 57
10970, 97405, 57
10971, 96727, 57
10972, 96420, 57
10973, 96055, 57
10974, 95731, 57
10975, 95274, 57
10976, 94658, 57
10977, 94376, 57
10978, 93844, 57
10979, 93414, 57
10980, 92953, 57
10981, 92537, 57
10982, 92503, 57
10983, 92126, 57
10984, 91744, 57
10985, 91355, 57
10986, 91094, 57
10987, 90946, 57
10988, 90631, 57
10989, 90204, 57
10990, 89978, 57
10991, 89891, 57
10992, 89618, 57
10993, 89468, 57
10994, 89095, 57
10995, 88887, 57
10996, 88913, 57
10997, 88688, 57
10998, 88666, 57
10999, 88538, 57
11000, 90179, 57
11001, 90250, 57
11002, 90612, 57
11003, 90869, 57
11004, 91018, 57
11005, 91360, 57
11006, 91875, 57
11007, 91980, 57
11008, 92007, 57
11009, 92154, 57
11010, 92454, 57
11011, 92635, 57
11012, 93061, 57
11013, 93471, 57
11014, 93796, 57
11015, 93884, 57
11016, 94270, 57
11017, 94792, 57
11018, 94921, 57
11019, 95303, 57
11020, 95679, 57
11021, 95964, 57
11022, 96392, 57
11023, 96650, 57
11024, 97044, 57
11025, 98701, 57
11026, 98928, 57
11027, 99474, 57
11028, 99651, 57
11029, 100163, 57
11030, 100847, 57
11031, 101143, 57
11032, 101338, 57
11033, 102026, 57
11034, 102402, 57
11035, 102836, 57
11036, 103375, 57
11037, 103728, 57
11038, 103892, 57
11039, 104437, 57
11040, 104864, 57
11041, 104978, 57
11042, 105059, 57
11043, 104997, 57
11044, 104540, 57
11045, 104342, 57
11046, 103825, 57
11047, 103320, 57
11048, 102810, 57
11049, 102225, 57
11050, 101559, 57
11051, 101161, 57
11052, 100488, 57
11053, 100062, 57
11054, 99378, 57
11055, 98929, 57
11056, 98343, 57
11057, 97961, 57
11058, 97424, 57
11059, 96987, 57
11060, 96221, 57
11061, 95992, 57
11062, 95589, 57
11063, 95177, 57
11064, 94670, 57
11065, 94469, 57
11066, 93927, 57
11067, 93627, 57
11068, 93222, 57
11069, 92916, 57
11070, 92580, 57
11071, 92273, 57
11072, 91951, 57
11073, 91624, 57
11074, 91255, 57
11075, 88767, 57
11076, 88794, 57
11077, 88867, 57
11078, 89072, 57
11079, 89081, 57
11080, 89260, 57
11081, 89463, 57
11082, 89442, 57
11083, 89840, 57
11084, 89668, 57
11085, 90131, 57
11086, 90258, 57
11087, 90535, 57
11088, 90769, 57
11089, 90904, 57
11090, 91276, 57
11091, 91284, 57
11092, 91562, 57
11093, 91999, 57
11094, 92221, 57
11095, 92534, 57
11096, 92708, 57
11097, 93111, 57
11098, 93377, 57
11099, 93579, 57
11100, 94762, 57
11101, 95066, 57
11102, 95449, 57
11103, 95720, 57
11104, 96216, 57
11105, 96604, 57
11106, 96964, 57
11107, 97385, 57
11108, 97891, 57
11109, 98223, 57
11110, 98655, 57
11111, 99169, 57
11112, 100053, 57
11113, 100053, 57
11114, 100717, 57
11115, 100922, 57
11116, 101260, 57
11117, 101592, 57
11118, 102001, 57
11119, 101810, 57
11120, 101800, 57
11121, 101818, 57
11122, 101694, 57
11123, 101330, 57
11124, 100660, 57
11125, 100348, 57
11126, 99637, 57
11127, 98829, 57
11128, 98052, 57
11129, 97632, 57
11130, 96899, 57
11131, 96335, 57
11132, 95793, 57
11133, 95284, 57
11134, 94788, 57
11135, 94272, 57
11136, 93757, 57
11137, 93358, 57
11138, 92805, 57
11139, 92301, 57
11140, 91822, 57
11141, 91581, 57
11142, 90981, 57
11143, 90542, 57
11144, 90035, 57
11145, 90141, 57
11146, 89633, 57
11147, 89251, 57
11148, 89060, 57
11149, 88715, 57
11150, 85641, 57
11151, 85784, 57
11152, 86030, 57
11153, 86388, 57
11154, 86389, 57
11155, 86512, 57
11156, 86737, 57
11157, 86865, 57
11158, 87120, 57
11159, 87396, 57
11160, 87604, 57
11161, 87761, 57
11162, 87939, 57
11163, 88274, 57
11164, 88686, 57
11165, 88914, 57
11166, 89034, 57
11167, 89397, 57
11168, 89642, 57
11169, 90088, 57
11170, 90283, 57
11171, 90508, 57
11172, 91056, 57
11173, 91435, 57
11174, 91599, 57
11175, 93086, 57
11176, 93345, 57
11177, 93818, 57
11178, 93956, 57
11179, 94422, 57
11180, 95068, 57
11181, 95341, 57
11182, 95677, 57
11183, 96083, 57
11184, 96700, 57
11185, 97047, 57
11186, 97446, 57
11187, 97885, 57
11188, 98356, 57
11189, 98771, 57
11190, 99227, 57
11191, 99770, 57
11192, 100284, 57
11193, 100917, 57
11194, 100917, 57
11195, 101067, 57
11196, 100956, 57
11197, 100714, 57
11198, 100411, 57
11199, 99870, 57
11200, 99215, 57
11201, 98502, 57
11202, 97796, 57
11203, 97169, 57
11204, 96389, 57
11205, 95725, 57
11206, 94851, 57
11207, 94048, 57
11208, 93290, 57
11209, 92873, 57
11210, 92346, 57
11211, 91722, 57
11212, 91163, 57
11213, 90608, 57
11214, 89923, 57
11215, 89421, 57
11216, 88908, 57
11217, 88269, 57
11218, 87812, 57
11219, 87201, 57
11220, 86701, 57
11221, 86165, 57
11222, 85725, 57
11223, 85360, 57
11224, 84922, 57
11225, 80237, 57
11226, 80237, 57
11227, 80191, 57
11228, 80203, 57
11229, 80575, 57
11230, 80399, 57
11231, 80346, 57
11232, 80550, 57
11233, 80949, 57
11234, 81000, 57
11235, 81107, 57
11236, 81205, 57
11237, 81255, 57
11238, 81684, 57
11239, 81801, 57
11240, 82084, 57
11241, 82084, 57
11242, 82332, 57
11243, 82622, 57
11244, 82699, 57
11245, 82981, 57
11246, 83127, 57
11247, 83564, 57
11248, 83712, 57
11249, 83957, 57
11250, 84809, 59
11251, 85309, 59
11252, 85529, 59
11253, 85836, 59
11254, 86300, 59
11255, 86464, 59
11256, 86752, 59
11257, 87392, 59
11258, 87814, 59
11259, 88152, 59
11260, 88331, 59
11261, 88725, 59
11262, 89035, 59
11263, 89586, 59
11264, 90068, 59
11265, 90595, 59
11266, 90882, 59
11267, 91370, 59
11268, 91811, 59
11269, 92219, 59
11270, 92602, 59
11271, 93022, 59
11272, 93514, 59
11273, 93902, 59
11274, 94415, 59
11275, 94764, 59
11276, 95113, 59
11277, 95211, 59
11278, 95150, 59
11279, 94834, 59
11280, 94261, 59
11281, 93896, 59
11282, 93148, 59
11283, 92617, 59
11284, 91638, 59
11285, 90783, 59
11286, 90052, 59
11287, 89132, 59
11288, 88387, 59
11289, 87651, 59
11290, 86994, 59
11291, 86261, 59
11292, 85675, 59
11293, 84934, 59
11294, 84425, 59
11295, 83861, 59
11296, 83481, 59
11297, 82776, 59
