Bvp Num, Bvp
11925, 1739008, 84
11926, 1738054, 84
11927, 1736586, 84
11928, 1734755, 84
11929, 1733852, 84
11930, 1733241, 84
11931, 581663, 84
11932, 249003, 84
11933, 162272, 84
11934, 138940, 84
11935, 132704, 84
11936, 131014, 84
11937, 130392, 84
11938, 130378, 84
11939, 130278, 84
11940, 130245, 84
11941, 130114, 84
11942, 130153, 84
11943, 130104, 84
11944, 130112, 84
11945, 130091, 84
11946, 130037, 84
11947, 130006, 84
11948, 130037, 84
11949, 130080, 84
11950, 130119, 84
11951, 130025, 84
11952, 130046, 84
11953, 130123, 84
11954, 130030, 84
11955, 130026, 84
11956, 130045, 84
11957, 130062, 84
11958, 2052468, 84
11959, 2040313, 84
11960, 2040105, 84
11961, 2039438, 84
11962, 2038736, 84
11963, 2037506, 84
11964, 2038418, 84
11965, 2038534, 84
11966, 2038557, 84
11967, 2037977, 84
11968, 2038854, 84
11969, 2038412, 84
11970, 2082055, 84
11971, 2094086, 84
11972, 2097122, 84
11973, -2096473, 84
11974, -2095671, 84
11975, -2095561, 84
11976, -2095654, 84
11977, -2095546, 84
11978, -2095798, 84
11979, -2095699, 84
11980, -2095589, 84
11981, -2095715, 84
11982, 1671034, 84
11983, 1413159, 84
11984, 1344301, 84
11985, 1326008, 84
11986, 1321230, 84
11987, 1320075, 84
11988, 1320283, 84
11989, 1320234, 84
11990, 1319984, 84
11991, 1320573, 84
11992, 1321176, 84
11993, 1321074, 84
11994, 838162, 84
11995, 708544, 84
11996, 673870, 84
11997, 664678, 84
11998, 662321, 84
11999, 661903, 84
12000, 661747, 84
12001, 661785, 84
12002, 661668, 84
12003, 661858, 84
12004, 661850, 84
12005, 661598, 84
12006, 661376, 84
12007, -936199, 84
12008, -1364727, 84
12009, -1479450, 84
12010, -1510307, 84
12011, -1518533, 84
12012, -1521004, 84
12013, -1521711, 84
12014, -1521897, 84
12015, -1521925, 84
12016, -1521799, 84
12017, -1521577, 84
12018, -1521387, 84
12019, -565809, 84
12020, -309327, 84
12021, -240340, 84
12022, -221876, 84
12023, -216514, 84
12024, -215014, 84
12025, -214418, 84
12026, -214021, 84
12027, -213923, 84
12028, -213490, 84
12029, -213222, 84
12030, -212964, 84
12031, -212686, 84
12032, -212406, 84
12033, -212287, 84
12034, -211890, 84
12035, -211774, 84
12036, -211496, 84
12037, -211233, 84
12038, -210888, 84
12039, -210403, 84
12040, -210180, 84
12041, -210119, 84
12042, -209781, 84
12043, -209558, 84
12044, -209332, 84
12045, -208772, 84
12046, -208473, 84
12047, -207923, 84
12048, -207762, 84
12049, -207492, 84
12050, -207103, 100
12051, -206830, 100
12052, -206414, 100
12053, -206225, 100
12054, -205767, 100
12055, -205300, 100
12056, -204997, 100
12057, -204462, 100
12058, -204164, 100
12059, -203475, 100
12060, -203233, 100
12061, -202642, 100
12062, -202275, 100
12063, -201455, 100
12064, -201237, 100
12065, -200964, 100
12066, -200636, 100
12067, -200613, 100
12068, -200826, 100
12069, -200917, 100
12070, -201167, 100
12071, -201326, 100
12072, -201648, 100
12073, -201797, 100
12074, -201866, 100
12075, -201916, 100
12076, -201960, 100
12077, -202233, 100
12078, -202135, 100
12079, -202166, 100
12080, -202054, 100
12081, -202404, 100
12082, -202421, 100
12083, -202365, 100
12084, -202665, 100
12085, -202857, 100
12086, -203012, 100
12087, -202794, 100
12088, -202687, 100
12089, -202695, 100
12090, -202445, 100
12091, -202218, 100
12092, -202182, 100
12093, -202110, 100
12094, -202223, 100
12095, -202080, 100
12096, -201890, 100
12097, -201848, 100
12098, -201831, 100
12099, -201683, 100
12100, -201533, 100
12101, -201353, 100
12102, -201355, 100
12103, -201183, 100
12104, -201183, 100
12105, -200985, 100
12106, -200793, 100
12107, -200625, 100
12108, -200586, 100
12109, -200405, 100
12110, -200167, 100
12111, -199992, 100
12112, -199879, 100
12113, -199559, 100
12114, -199454, 100
12115, -199160, 100
12116, -199131, 100
12117, -198781, 100
12118, -198460, 100
12119, -198358, 100
12120, -198017, 100
12121, -197739, 100
12122, -197571, 100
12123, -197253, 100
12124, -196982, 100
12125, -196706, 100
12126, -196473, 100
12127, -196075, 100
12128, -195933, 100
12129, -195511, 100
12130, -195078, 100
12131, -194568, 100
12132, -194555, 100
12133, -194502, 100
12134, -194661, 100
12135, -194697, 100
12136, -194887, 100
12137, -195249, 100
12138, -195400, 100
12139, -195679, 100
12140, -196001, 100
12141, -196272, 100
12142, -196551, 100
12143, -196861, 100
12144, -196899, 100
12145, -197272, 100
12146, -197449, 100
12147, -197492, 100
12148, -197571, 100
12149, -197581, 100
12150, -197936, 100
12151, -197822, 100
12152, -197906, 100
12153, -197905, 100
12154, -197879, 100
12155, -197707, 100
12156, -197720, 100
12157, -197659, 100
12158, -197670, 100
12159, -197554, 100
12160, -197599, 100
12161, -197073, 100
12162, -197200, 100
12163, -197174, 100
12164, -197099, 100
12165, -196955, 100
12166, -196822, 100
12167, -196921, 100
12168, -196707, 100
12169, -196458, 100
12170, -196526, 100
12171, -196295, 100
12172, -196093, 100
12173, -195776, 100
12174, -195787, 100
12175, -195576, 90
12176, -195425, 90
12177, -195412, 90
12178, -194992, 90
12179, -194737, 90
12180, -194524, 90
12181, -194224, 90
12182, -193938, 90
12183, -193768, 90
12184, -193609, 90
12185, -193156, 90
12186, -192720, 90
12187, -192769, 90
12188, -192527, 90
12189, -192437, 90
12190, -192102, 90
12191, -191842, 90
12192, -191380, 90
12193, -191010, 90
12194, -190851, 90
12195, -190541, 90
12196, -190286, 90
12197, -189952, 90
12198, -189844, 90
12199, -189706, 90
12200, -189819, 90
12201, -190255, 90
12202, -190242, 90
12203, -190496, 90
12204, -190839, 90
12205, -191092, 90
12206, -191364, 90
12207, -191759, 90
12208, -192115, 90
12209, -192176, 90
12210, -192525, 90
12211, -192724, 90
12212, -192783, 90
12213, -193078, 90
12214, -193251, 90
12215, -193279, 90
12216, -193624, 90
12217, -193643, 90
12218, -193710, 90
12219, -193650, 90
12220, -193645, 90
12221, -193580, 90
12222, -193578, 90
12223, -193449, 90
12224, -193387, 90
12225, -193414, 90
12226, -193326, 90
12227, -193280, 90
12228, -193318, 90
12229, -193017, 90
12230, -192766, 90
12231, -192837, 90
12232, -192847, 90
12233, -193007, 90
12234, -192754, 90
12235, -192738, 90
12236, -192624, 90
12237, -192479, 90
12238, -192467, 90
12239, -192380, 90
12240, -191999, 90
12241, -192102, 90
12242, -191966, 90
12243, -191734, 90
12244, -191513, 90
12245, -191352, 90
12246, -191335, 90
12247, -191002, 90
12248, -190752, 90
12249, -190580, 90
12250, -190474, 90
12251, -190229, 90
12252, -189979, 90
12253, -189861, 90
12254, -189624, 90
12255, -189550, 90
12256, -189362, 90
12257, -188750, 90
12258, -188554, 90
12259, -188505, 90
12260, -188216, 90
12261, -187969, 90
12262, -188086, 90
12263, -188069, 90
12264, -188262, 90
12265, -189502, 90
12266, -189502, 90
12267, -189836, 90
12268, -190329, 90
12269, -190672, 90
12270, -190945, 90
12271, -191302, 90
12272, -191441, 90
12273, -191887, 90
12274, -192025, 90
12275, -192310, 90
12276, -192427, 90
12277, -192598, 90
12278, -192743, 90
12279, -192767, 90
12280, -192921, 90
12281, -192895, 90
12282, -192874, 90
12283, -193081, 90
12284, -193016, 90
12285, -192930, 90
12286, -193074, 90
12287, -193143, 90
12288, -192825, 90
12289, -192977, 90
12290, -192771, 90
12291, -192771, 90
12292, -192771, 90
12293, -192746, 90
12294, -192794, 90
12295, -192731, 90
12296, -192694, 90
12297, -192668, 90
12298, -192557, 90
12299, -192434, 90
12300, -192465, 88
12301, -192327, 88
12302, -192223, 88
12303, -192225, 88
12304, -191971, 88
12305, -191735, 88
12306, -191600, 88
12307, -191403, 88
12308, -191298, 88
12309, -191182, 88
12310, -190951, 88
12311, -190792, 88
12312, -190516, 88
12313, -190488, 88
12314, -190156, 88
12315, -190094, 88
12316, -189814, 88
12317, -189612, 88
12318, -189422, 88
12319, -188993, 88
12320, -188779, 88
12321, -188490, 88
12322, -188231, 88
12323, -187956, 88
12324, -188070, 88
12325, -188087, 88
12326, -188577, 88
12327, -188780, 88
12328, -188785, 88
12329, -189586, 88
12330, -189928, 88
12331, -190514, 88
12332, -191000, 88
12333, -191578, 88
12334, -192072, 88
12335, -192454, 88
12336, -192726, 88
12337, -193349, 88
12338, -193653, 88
12339, -194024, 88
12340, -194453, 88
12341, -194513, 88
12342, -194829, 88
12343, -195115, 88
12344, -195356, 88
12345, -195442, 88
12346, -195551, 88
12347, -195670, 88
12348, -195729, 88
12349, -195968, 88
12350, -195835, 88
12351, -196291, 88
12352, -196205, 88
12353, -196175, 88
12354, -196154, 88
12355, -196299, 88
12356, -196253, 88
12357, -196352, 88
12358, -196268, 88
12359, -196378, 88
12360, -196390, 88
12361, -196410, 88
12362, -196366, 88
12363, -196258, 88
12364, -196202, 88
12365, -196382, 88
12366, -196293, 88
12367, -196313, 88
12368, -196066, 88
12369, -195972, 88
12370, -195995, 88
12371, -195874, 88
12372, -195805, 88
12373, -195595, 88
12374, -195560, 88
12375, -195323, 88
12376, -195278, 88
12377, -195118, 88
12378, -194826, 88
12379, -194586, 88
12380, -194464, 88
12381, -194607, 88
12382, -194302, 88
12383, -193844, 88
12384, -193829, 88
12385, -193514, 88
12386, -193277, 88
12387, -193075, 88
12388, -192706, 88
12389, -192639, 88
12390, -192544, 88
12391, -192716, 88
12392, -193017, 88
12393, -193585, 88
12394, -193844, 88
12395, -194276, 88
12396, -195349, 88
12397, -195729, 88
12398, -196521, 88
12399, -196866, 88
12400, -197590, 88
12401, -198144, 88
12402, -198607, 88
12403, -199026, 88
12404, -199675, 88
12405, -200238, 88
12406, -200480, 88
12407, -200916, 88
12408, -201330, 88
12409, -201796, 88
12410, -202010, 88
12411, -202067, 88
12412, -202329, 88
12413, -202443, 88
12414, -202694, 88
12415, -202947, 88
12416, -203060, 88
12417, -203256, 88
12418, -203247, 88
12419, -203447, 88
12420, -203338, 88
12421, -203244, 88
12422, -203533, 88
12423, -203637, 88
12424, -203863, 88
12425, -204020, 81
12426, -203863, 81
12427, -204134, 81
12428, -203697, 81
12429, -203875, 81
12430, -203929, 81
12431, -203991, 81
12432, -203985, 81
12433, -204066, 81
12434, -203994, 81
12435, -203983, 81
12436, -203663, 81
12437, -203513, 81
12438, -203492, 81
12439, -203479, 81
12440, -203209, 81
12441, -202966, 81
12442, -202781, 81
12443, -202928, 81
12444, -202928, 81
12445, -202686, 81
12446, -202451, 81
12447, -202171, 81
12448, -202014, 81
12449, -201879, 81
12450, -201552, 81
12451, -201527, 81
12452, -201244, 81
12453, -200935, 81
12454, -200656, 81
12455, -200535, 81
12456, -200303, 81
12457, -200248, 81
12458, -199926, 81
12459, -199648, 81
12460, -199365, 81
12461, -199116, 81
12462, -198492, 81
12463, -198454, 81
12464, -198368, 81
12465, -198609, 81
12466, -198569, 81
12467, -198860, 81
12468, -199610, 81
12469, -199926, 81
12470, -200717, 81
12471, -201545, 81
12472, -202090, 81
12473, -202452, 81
12474, -203116, 81
12475, -203910, 81
12476, -204180, 81
12477, -204725, 81
12478, -205271, 81
12479, -205627, 81
12480, -205890, 81
12481, -206453, 81
12482, -206799, 81
12483, -207153, 81
12484, -207308, 81
12485, -207518, 81
12486, -207731, 81
12487, -207702, 81
12488, -208003, 81
12489, -208021, 81
12490, -208093, 81
12491, -208198, 81
12492, -208211, 81
12493, -208376, 81
12494, -208380, 81
12495, -208443, 81
12496, -208218, 81
12497, -208363, 81
12498, -208513, 81
12499, -208654, 81
12500, -208529, 81
12501, -208663, 81
12502, -208601, 81
12503, -208642, 81
12504, -208632, 81
12505, -208550, 81
12506, -208356, 81
12507, -208237, 81
12508, -208369, 81
12509, -208489, 81
12510, -208324, 81
12511, -208049, 81
12512, -207995, 81
12513, -207648, 81
12514, -207499, 81
12515, -207193, 81
12516, -206920, 81
12517, -207027, 81
12518, -206896, 81
12519, -206682, 81
12520, -206458, 81
12521, -206319, 81
12522, -206132, 81
12523, -206047, 81
12524, -205770, 81
12525, -205476, 81
12526, -205040, 81
12527, -204852, 81
12528, -204612, 81
12529, -204483, 81
12530, -204202, 81
12531, -203981, 81
12532, -203655, 81
12533, -203370, 81
12534, -203042, 81
12535, -202854, 81
12536, -202461, 81
12537, -202297, 81
12538, -201873, 81
12539, -201688, 81
12540, -201297, 81
12541, -200956, 81
12542, -200746, 81
12543, -200813, 81
12544, -201081, 81
12545, -201057, 81
12546, -201297, 81
12547, -201915, 81
12548, -202631, 81
12549, -203185, 81
12550, -203536, 78
12551, -204113, 78
12552, -204167, 78
12553, -204918, 78
12554, -205410, 78
12555, -205569, 78
12556, -206254, 78
12557, -206487, 78
12558, -206771, 78
12559, -206871, 78
12560, -207165, 78
12561, -207344, 78
12562, -207509, 78
12563, -207628, 78
12564, -207446, 78
12565, -207439, 78
12566, -207523, 78
12567, -207557, 78
12568, -207251, 78
12569, -207473, 78
12570, -207483, 78
12571, -207469, 78
12572, -207540, 78
12573, -207459, 78
12574, -207382, 78
12575, -207403, 78
12576, -207423, 78
12577, -207444, 78
12578, -207338, 78
12579, -207183, 78
12580, -207281, 78
12581, -207216, 78
12582, -207139, 78
12583, -206922, 78
12584, -206865, 78
12585, -206613, 78
12586, -206438, 78
12587, -206378, 78
12588, -206262, 78
12589, -206110, 78
12590, -205951, 78
12591, -205549, 78
12592, -205433, 78
12593, -205244, 78
12594, -205023, 78
12595, -204584, 78
12596, -204650, 78
12597, -204254, 78
12598, -203682, 78
12599, -203827, 78
12600, -203466, 78
12601, -203118, 78
12602, -202936, 78
12603, -202309, 78
12604, -202265, 78
12605, -202008, 78
12606, -201885, 78
12607, -201630, 78
12608, -201369, 78
12609, -200883, 78
12610, -200608, 78
12611, -200174, 78
12612, -199917, 78
12613, -199408, 78
12614, -199193, 78
12615, -198616, 78
12616, -198380, 78
12617, -198104, 78
12618, -197747, 78
12619, -197784, 78
12620, -197924, 78
12621, -198327, 78
12622, -198824, 78
12623, -199259, 78
12624, -199530, 78
12625, -203697, 78
12626, -203812, 78
12627, -203845, 78
12628, -203842, 78
12629, -204043, 78
12630, -203976, 78
12631, -204231, 78
12632, -204108, 78
12633, -203952, 78
12634, -203849, 78
12635, -203745, 78
12636, -203882, 78
12637, -203726, 78
12638, -203520, 78
12639, -203616, 78
12640, -203519, 78
12641, -203550, 78
12642, -203396, 78
12643, -203336, 78
12644, -203298, 78
12645, -203183, 78
12646, -203177, 78
12647, -203084, 78
12648, -202787, 78
12649, -202910, 78
12650, -201803, 78
12651, -201702, 78
12652, -201457, 78
12653, -201113, 78
12654, -200914, 78
12655, -200484, 78
12656, -200484, 78
12657, -200216, 78
12658, -199757, 78
12659, -199503, 78
12660, -199339, 78
12661, -198903, 78
12662, -198783, 78
12663, -198343, 78
12664, -197970, 78
12665, -197652, 78
12666, -197569, 78
12667, -197097, 78
12668, -196690, 78
12669, -196271, 78
12670, -196124, 78
12671, -195774, 78
12672, -195371, 78
12673, -195107, 78
12674, -195028, 78
12675, -193252, 78
12676, -192758, 78
12677, -192451, 78
12678, -191969, 78
12679, -192318, 78
12680, -192459, 78
12681, -192695, 78
12682, -192925, 78
12683, -193625, 78
12684, -193995, 78
12685, -194501, 78
12686, -195147, 78
12687, -195594, 78
12688, -196067, 78
12689, -196567, 78
12690, -196855, 78
12691, -197378, 78
12692, -197570, 78
12693, -197979, 78
12694, -198102, 78
12695, -198407, 78
12696, -198620, 78
12697, -198774, 78
12698, -198976, 78
12699, -199224, 78
12700, -195414, 78
12701, -194893, 78
12702, -194683, 78
12703, -194508, 78
12704, -194403, 78
12705, -193954, 78
12706, -193557, 78
12707, -193365, 78
12708, -193153, 78
12709, -192869, 78
12710, -192573, 78
12711, -192199, 78
12712, -191953, 78
12713, -191679, 78
12714, -191257, 78
12715, -190846, 78
12716, -190472, 78
12717, -190231, 78
12718, -190032, 78
12719, -189634, 78
12720, -189234, 78
12721, -188538, 78
12722, -188549, 78
12723, -188560, 78
12724, -188947, 78
12725, -191253, 79
12726, -191834, 79
12727, -192465, 79
12728, -192836, 79
12729, -193324, 79
12730, -193785, 79
12731, -194188, 79
12732, -194506, 79
12733, -194799, 79
12734, -195187, 79
12735, -195332, 79
12736, -195632, 79
12737, -195748, 79
12738, -195898, 79
12739, -195958, 79
12740, -195913, 79
12741, -195753, 79
12742, -196031, 79
12743, -196135, 79
12744, -196106, 79
12745, -195924, 79
12746, -196063, 79
12747, -195738, 79
12748, -195844, 79
12749, -195887, 79
12750, -190264, 79
12751, -190018, 79
12752, -189686, 79
12753, -189260, 79
12754, -189063, 79
12755, -188902, 79
12756, -188426, 79
12757, -188061, 79
12758, -187794, 79
12759, -187525, 79
12760, -187198, 79
12761, -186867, 79
12762, -186894, 79
12763, -187053, 79
12764, -187312, 79
12765, -187778, 79
12766, -188007, 79
12767, -188477, 79
12768, -189103, 79
12769, -189896, 79
12770, -190152, 79
12771, -190778, 79
12772, -191199, 79
12773, -191577, 79
12774, -191944, 79
12775, -192518, 79
12776, -192816, 79
12777, -192906, 79
12778, -193124, 79
12779, -193182, 79
12780, -193241, 79
12781, -193358, 79
12782, -193459, 79
12783, -193315, 79
12784, -193247, 79
12785, -193323, 79
12786, -193676, 79
12787, -193543, 79
12788, -193488, 79
12789, -193636, 79
12790, -193492, 79
12791, -193593, 79
12792, -193523, 79
12793, -193599, 79
12794, -193738, 79
12795, -193807, 79
12796, -193676, 79
12797, -193926, 79
12798, -193563, 79
12799, -193567, 79
12800, -193619, 79
12801, -193454, 79
12802, -193177, 79
12803, -193045, 79
12804, -192888, 79
12805, -193072, 79
12806, -192927, 79
12807, -192658, 79
12808, -192552, 79
12809, -192386, 79
12810, -192154, 79
12811, -191986, 79
12812, -191880, 79
12813, -191656, 79
12814, -191434, 79
12815, -191031, 79
12816, -191114, 79
12817, -190768, 79
12818, -190630, 79
12819, -190446, 79
12820, -189862, 79
12821, -189948, 79
12822, -189856, 79
12823, -189399, 79
12824, -189101, 79
12825, -197882, 79
12826, -197928, 79
12827, -197968, 79
12828, -197916, 79
12829, -197902, 79
12830, -197941, 79
12831, -198001, 79
12832, -198060, 79
12833, -198003, 79
12834, -197973, 79
12835, -197952, 79
12836, -197994, 79
12837, -197900, 79
12838, -197948, 79
12839, -197647, 79
12840, -197457, 79
12841, -197538, 79
12842, -197313, 79
12843, -197038, 79
12844, -196876, 79
12845, -196763, 79
12846, -196499, 79
12847, -196402, 79
12848, -196033, 79
12849, -195921, 79
12850, -195152, 83
12851, -194995, 83
12852, -194744, 83
12853, -194387, 83
12854, -194113, 83
12855, -193877, 83
12856, -193470, 83
12857, -193272, 83
12858, -192990, 83
12859, -192870, 83
12860, -192470, 83
12861, -192221, 83
12862, -191901, 83
12863, -191555, 83
12864, -191658, 83
12865, -191906, 83
12866, -192099, 83
12867, -192522, 83
12868, -193169, 83
12869, -194062, 83
12870, -194490, 83
12871, -195530, 83
12872, -196227, 83
12873, -197153, 83
12874, -198045, 83
12875, -205672, 83
12876, -205671, 83
12877, -205699, 83
12878, -205565, 83
12879, -205303, 83
12880, -205318, 83
12881, -205104, 83
12882, -204597, 83
12883, -204735, 83
12884, -204683, 83
12885, -204651, 83
12886, -204277, 83
12887, -204151, 83
12888, -203919, 83
12889, -203704, 83
12890, -203687, 83
12891, -203201, 83
12892, -202997, 83
12893, -202630, 83
12894, -202577, 83
12895, -202259, 83
12896, -202152, 83
12897, -201960, 83
12898, -201736, 83
12899, -201681, 83
12900, -201238, 83
12901, -201096, 83
12902, -200830, 83
12903, -200425, 83
12904, -200074, 83
12905, -199735, 83
12906, -199900, 83
12907, -200350, 83
12908, -201051, 83
12909, -201465, 83
12910, -202397, 83
12911, -203316, 83
12912, -204282, 83
12913, -205051, 83
12914, -205848, 83
12915, -206816, 83
12916, -207541, 83
12917, -208366, 83
12918, -209196, 83
12919, -209909, 83
12920, -210013, 83
12921, -210767, 83
12922, -211242, 83
12923, -212074, 83
12924, -212339, 83
12925, -212719, 83
12926, -213102, 83
12927, -213391, 83
12928, -213512, 83
12929, -213584, 83
12930, -213749, 83
12931, -213867, 83
12932, -214039, 83
12933, -214145, 83
12934, -214147, 83
12935, -214423, 83
12936, -214724, 83
12937, -214536, 83
12938, -214879, 83
12939, -214961, 83
12940, -215181, 83
12941, -215297, 83
12942, -215158, 83
12943, -215184, 83
12944, -215499, 83
12945, -215460, 83
12946, -215541, 83
12947, -215514, 83
12948, -215460, 83
12949, -215374, 83
12950, -209474, 83
12951, -209523, 83
12952, -208987, 83
12953, -208993, 83
12954, -208787, 83
12955, -208469, 83
12956, -208608, 83
12957, -208734, 83
12958, -209345, 83
12959, -210164, 83
12960, -210894, 83
12961, -211622, 83
12962, -212524, 83
12963, -213261, 83
12964, -214253, 83
12965, -215142, 83
12966, -215918, 83
12967, -216474, 83
12968, -217159, 83
12969, -217530, 83
12970, -218110, 83
12971, -218716, 83
12972, -219088, 83
12973, -219355, 83
12974, -219524, 83
12975, -219899, 83
12976, -220109, 83
12977, -220176, 83
12978, -220427, 83
12979, -220662, 83
12980, -220298, 83
12981, -220319, 83
12982, -220501, 83
12983, -220550, 83
12984, -220725, 83
12985, -220955, 83
12986, -221136, 83
12987, -221162, 83
12988, -221061, 83
12989, -221252, 83
12990, -221283, 83
12991, -221252, 83
12992, -221346, 83
12993, -221325, 83
12994, -221135, 83
12995, -221216, 83
12996, -221273, 83
12997, -221172, 83
12998, -221319, 83
12999, -220977, 83
13000, -220767, 84
13001, -220300, 84
13002, -220326, 84
13003, -220218, 84
13004, -220126, 84
13005, -219715, 84
13006, -219685, 84
13007, -219412, 84
13008, -219049, 84
13009, -218715, 84
13010, -218702, 84
13011, -218526, 84
13012, -218313, 84
13013, -218020, 84
13014, -217761, 84
13015, -217325, 84
13016, -217105, 84
13017, -216624, 84
13018, -216162, 84
13019, -215952, 84
13020, -215824, 84
13021, -215468, 84
13022, -215230, 84
13023, -214994, 84
13024, -214598, 84
13025, -224427, 84
13026, -224535, 84
13027, -224445, 84
13028, -224446, 84
13029, -224415, 84
13030, -224773, 84
13031, -224536, 84
13032, -224383, 84
13033, -224354, 84
13034, -224455, 84
13035, -224558, 84
13036, -224369, 84
13037, -224447, 84
13038, -224486, 84
13039, -224484, 84
13040, -224202, 84
13041, -224231, 84
13042, -224156, 84
13043, -224353, 84
13044, -223993, 84
13045, -224074, 84
13046, -223672, 84
13047, -223600, 84
13048, -223364, 84
13049, -222946, 84
13050, -222748, 84
13051, -222679, 84
13052, -222203, 84
13053, -222000, 84
13054, -221734, 84
13055, -221453, 84
13056, -221107, 84
13057, -220811, 84
13058, -220594, 84
13059, -220072, 84
13060, -219984, 84
13061, -219718, 84
13062, -219205, 84
13063, -219042, 84
13064, -218568, 84
13065, -218098, 84
13066, -217831, 84
13067, -217368, 84
13068, -217011, 84
13069, -216896, 84
13070, -216707, 84
13071, -216861, 84
13072, -217560, 84
13073, -218300, 84
13074, -218891, 84
13075, -220071, 84
13076, -220721, 84
13077, -221825, 84
13078, -222816, 84
13079, -223551, 84
13080, -224379, 84
13081, -225235, 84
13082, -225884, 84
13083, -226384, 84
13084, -227004, 84
13085, -227533, 84
13086, -227896, 84
13087, -228298, 84
13088, -228774, 84
13089, -229164, 84
13090, -229259, 84
13091, -229580, 84
13092, -229607, 84
13093, -229673, 84
13094, -229667, 84
13095, -229746, 84
13096, -229903, 84
13097, -230153, 84
13098, -230109, 84
13099, -230381, 84
13100, -230396, 84
13101, -230427, 84
13102, -230251, 84
13103, -230026, 84
13104, -230277, 84
13105, -230431, 84
13106, -230558, 84
13107, -230262, 84
13108, -230214, 84
13109, -230221, 84
13110, -230093, 84
13111, -230185, 84
13112, -230010, 84
13113, -229950, 84
13114, -229859, 84
13115, -229656, 84
13116, -229378, 84
13117, -229235, 84
13118, -229022, 84
13119, -228827, 84
13120, -228644, 84
13121, -228353, 84
13122, -228051, 84
13123, -227851, 84
13124, -227621, 84
13125, -223979, 84
13126, -224794, 84
13127, -225615, 84
13128, -226363, 84
13129, -227442, 84
13130, -228618, 84
13131, -229586, 84
13132, -230376, 84
13133, -231358, 84
13134, -232172, 84
13135, -232969, 84
13136, -233504, 84
13137, -234168, 84
13138, -234717, 84
13139, -235140, 84
13140, -235608, 84
13141, -236153, 84
13142, -236340, 84
13143, -236849, 84
13144, -237047, 84
13145, -237093, 84
13146, -237495, 84
13147, -237590, 84
13148, -237787, 84
13149, -237695, 84
13150, -238170, 83
13151, -238438, 83
13152, -238163, 83
13153, -238358, 83
13154, -238174, 83
13155, -238223, 83
13156, -238344, 83
13157, -238447, 83
13158, -238324, 83
13159, -238102, 83
13160, -238055, 83
13161, -237699, 83
13162, -237672, 83
13163, -237543, 83
13164, -237169, 83
13165, -236981, 83
13166, -236664, 83
13167, -236730, 83
13168, -236335, 83
13169, -236159, 83
13170, -235868, 83
13171, -235471, 83
13172, -235294, 83
13173, -234900, 83
13174, -234647, 83
13175, -241625, 83
13176, -241803, 83
13177, -242031, 83
13178, -242110, 83
13179, -242292, 83
13180, -242322, 83
13181, -242526, 83
13182, -242566, 83
13183, -242437, 83
13184, -242497, 83
13185, -242581, 83
13186, -242584, 83
13187, -242491, 83
13188, -242647, 83
13189, -242736, 83
13190, -242832, 83
13191, -242805, 83
13192, -242857, 83
13193, -242953, 83
13194, -242726, 83
13195, -242814, 83
13196, -242799, 83
13197, -242267, 83
13198, -242363, 83
13199, -242515, 83
13200, -242357, 83
13201, -242260, 83
13202, -241693, 83
13203, -241569, 83
13204, -241619, 83
13205, -241270, 83
13206, -240947, 83
13207, -240761, 83
13208, -240400, 83
13209, -240144, 83
13210, -239998, 83
13211, -239524, 83
13212, -239314, 83
13213, -238823, 83
13214, -238578, 83
13215, -238253, 83
13216, -237983, 83
13217, -237537, 83
13218, -237425, 83
13219, -236852, 83
13220, -236446, 83
13221, -236189, 83
13222, -235963, 83
13223, -235566, 83
13224, -235167, 83
13225, -234818, 83
13226, -234465, 83
13227, -234440, 83
13228, -234410, 83
13229, -234701, 83
13230, -235276, 83
13231, -235745, 83
13232, -236791, 83
13233, -237449, 83
13234, -238062, 83
13235, -239150, 83
13236, -239885, 83
13237, -240670, 83
13238, -241435, 83
13239, -241970, 83
13240, -242549, 83
13241, -242729, 83
13242, -243139, 83
13243, -243633, 83
13244, -244100, 83
13245, -244136, 83
13246, -244526, 83
13247, -244645, 83
13248, -244591, 83
13249, -244618, 83
13250, -239883, 83
13251, -239728, 83
13252, -239367, 83
13253, -239027, 83
13254, -238586, 83
13255, -238157, 83
13256, -237740, 83
13257, -237327, 83
13258, -237061, 83
13259, -236413, 83
13260, -235939, 83
13261, -235501, 83
13262, -235072, 83
13263, -234592, 83
13264, -234248, 83
13265, -233798, 83
13266, -233197, 83
13267, -232876, 83
13268, -232481, 83
13269, -231839, 83
13270, -231485, 83
13271, -231106, 83
13272, -230974, 83
13273, -231089, 83
13274, -231570, 83
13275, -232287, 83
13276, -232845, 83
13277, -233925, 83
13278, -234827, 83
13279, -235528, 83
13280, -236252, 83
13281, -237028, 83
13282, -237919, 83
13283, -238692, 83
13284, -239303, 83
13285, -239776, 83
13286, -240305, 83
13287, -240608, 83
13288, -241045, 83
13289, -241609, 83
13290, -241808, 83
13291, -242076, 83
13292, -242171, 83
13293, -242351, 83
13294, -242226, 83
13295, -242456, 83
13296, -242362, 83
13297, -242342, 83
13298, -242251, 83
13299, -242266, 83
13300, -242288, 83
13301, -242185, 83
13302, -242123, 83
13303, -242124, 83
13304, -242122, 83
13305, -242125, 83
13306, -242060, 83
13307, -241899, 83
13308, -241846, 83
13309, -241950, 83
13310, -241736, 83
13311, -241774, 83
13312, -241600, 83
13313, -241636, 83
13314, -241698, 83
13315, -241523, 83
13316, -241228, 83
13317, -241073, 83
13318, -241153, 83
13319, -240924, 83
13320, -240580, 83
13321, -240269, 83
13322, -240012, 83
13323, -239794, 83
13324, -239511, 83
13325, -234832, 83
13326, -235571, 83
13327, -236500, 83
13328, -237270, 83
13329, -237828, 83
13330, -238275, 83
13331, -238756, 83
13332, -239223, 83
13333, -239696, 83
13334, -240259, 83
13335, -240544, 83
13336, -240825, 83
13337, -240860, 83
13338, -241216, 83
13339, -241302, 83
13340, -241361, 83
13341, -241294, 83
13342, -241168, 83
13343, -241150, 83
13344, -241182, 83
13345, -241081, 83
13346, -240889, 83
13347, -240866, 83
13348, -240769, 83
13349, -240725, 83
13350, -240826, 83
13351, -240797, 83
13352, -240843, 83
13353, -240680, 83
13354, -240581, 83
13355, -240541, 83
13356, -240482, 83
13357, -240264, 83
13358, -239958, 83
13359, -239699, 83
13360, -239754, 83
13361, -239379, 83
13362, -239183, 83
13363, -238642, 83
13364, -238379, 83
13365, -237950, 83
13366, -237794, 83
13367, -237554, 83
13368, -237075, 83
13369, -236878, 83
13370, -236523, 83
13371, -236185, 83
13372, -235646, 83
13373, -235095, 83
13374, -234965, 83
13375, -234450, 83
13376, -234133, 83
13377, -233697, 83
13378, -233166, 83
13379, -233027, 83
13380, -232401, 83
13381, -231897, 83
13382, -231426, 83
13383, -230987, 83
13384, -230658, 83
13385, -230170, 83
13386, -229574, 83
13387, -229241, 83
13388, -228645, 83
13389, -228264, 83
13390, -227966, 83
13391, -227354, 83
13392, -226680, 83
13393, -226397, 83
13394, -226332, 83
13395, -226433, 83
13396, -226795, 83
13397, -227188, 83
13398, -227823, 83
13399, -228483, 83
13400, -234843, 83
13401, -234906, 83
13402, -234628, 83
13403, -234598, 83
13404, -234353, 83
13405, -234419, 83
13406, -234239, 83
13407, -234210, 83
13408, -233712, 83
13409, -233473, 83
13410, -233377, 83
13411, -233221, 83
13412, -232879, 83
13413, -232537, 83
13414, -232387, 83
13415, -232021, 83
13416, -231822, 83
13417, -231402, 83
13418, -231182, 83
13419, -230707, 83
13420, -230296, 83
13421, -230085, 83
13422, -229687, 83
13423, -229216, 83
13424, -228816, 83
13425, -228412, 83
13426, -227853, 83
13427, -227536, 83
13428, -227117, 83
13429, -226844, 83
13430, -226339, 83
13431, -225830, 83
13432, -225533, 83
13433, -225083, 83
13434, -224730, 83
13435, -224313, 83
13436, -223989, 83
13437, -223554, 83
13438, -222938, 83
13439, -222506, 83
13440, -222073, 83
13441, -221651, 83
13442, -221164, 83
13443, -220689, 83
13444, -220265, 83
13445, -220368, 83
13446, -220375, 83
13447, -220485, 83
13448, -221014, 83
13449, -221486, 83
13450, -226505, 91
13451, -226348, 91
13452, -226296, 91
13453, -226176, 91
13454, -225929, 91
13455, -225732, 91
13456, -225690, 91
13457, -225658, 91
13458, -225407, 91
13459, -225193, 91
13460, -225119, 91
13461, -224815, 91
13462, -224702, 91
13463, -224247, 91
13464, -224096, 91
13465, -223704, 91
13466, -223572, 91
13467, -223142, 91
13468, -222755, 91
13469, -222415, 91
13470, -222017, 91
13471, -221612, 91
13472, -221600, 91
13473, -221120, 91
13474, -220796, 91
13475, -219536, 91
13476, -219151, 91
13477, -218693, 91
13478, -218383, 91
13479, -217930, 91
13480, -217580, 91
13481, -217189, 91
13482, -216693, 91
13483, -216237, 91
13484, -215793, 91
13485, -215268, 91
13486, -214926, 91
13487, -214549, 91
13488, -214230, 91
13489, -213667, 91
13490, -213498, 91
13491, -213436, 91
13492, -213616, 91
13493, -214158, 91
13494, -214636, 91
13495, -215350, 91
13496, -215679, 91
13497, -216300, 91
13498, -216746, 91
13499, -217513, 91
13500, -218048, 91
13501, -218500, 91
13502, -219095, 91
13503, -219296, 91
13504, -219624, 91
13505, -219697, 91
13506, -219791, 91
13507, -219945, 91
13508, -220248, 91
13509, -220215, 91
13510, -220028, 91
13511, -219879, 91
13512, -219906, 91
13513, -219776, 91
13514, -219600, 91
13515, -219559, 91
13516, -219432, 91
13517, -219093, 91
13518, -219071, 91
13519, -218968, 91
13520, -218835, 91
13521, -218662, 91
13522, -218478, 91
13523, -218194, 91
13524, -218276, 91
13525, -210798, 91
13526, -210450, 91
13527, -209847, 91
13528, -209553, 91
13529, -209220, 91
13530, -208892, 91
13531, -208756, 91
13532, -209011, 91
13533, -209255, 91
13534, -209573, 91
13535, -210136, 91
13536, -210586, 91
13537, -211261, 91
13538, -211509, 91
13539, -212011, 91
13540, -212425, 91
13541, -212787, 91
13542, -213018, 91
13543, -213181, 91
13544, -213481, 91
13545, -213365, 91
13546, -213522, 91
13547, -213809, 91
13548, -213587, 91
13549, -213537, 91
13550, -212647, 91
13551, -212492, 91
13552, -212046, 91
13553, -212089, 91
13554, -211732, 91
13555, -211471, 91
13556, -211236, 91
13557, -211150, 91
13558, -210922, 91
13559, -210918, 91
13560, -210585, 91
13561, -210264, 91
13562, -210064, 91
13563, -209657, 91
13564, -209210, 91
13565, -209025, 91
13566, -208822, 91
13567, -208686, 91
13568, -208233, 91
13569, -207652, 91
13570, -207321, 91
13571, -207073, 91
13572, -206576, 91
13573, -206212, 91
13574, -205730, 91
13575, -205483, 91
13576, -204953, 91
13577, -204760, 91
13578, -204086, 91
13579, -203666, 91
13580, -203409, 91
13581, -202901, 91
13582, -202434, 91
13583, -201931, 91
13584, -201461, 91
13585, -201142, 91
13586, -200882, 91
13587, -200935, 91
13588, -200864, 91
13589, -201123, 91
13590, -201398, 91
13591, -201649, 91
13592, -202117, 91
13593, -202533, 91
13594, -203154, 91
13595, -203507, 91
13596, -203749, 91
13597, -203895, 91
13598, -204362, 91
13599, -204452, 91
13600, -200212, 91
13601, -199799, 91
13602, -199775, 91
13603, -199549, 91
13604, -199148, 91
13605, -198756, 91
13606, -198430, 91
13607, -197967, 91
13608, -197722, 91
13609, -197386, 91
13610, -197075, 91
13611, -196440, 91
13612, -196067, 91
13613, -195557, 91
13614, -195184, 91
13615, -194941, 91
13616, -194388, 91
13617, -194274, 91
13618, -193704, 91
13619, -193122, 91
13620, -192756, 91
13621, -192070, 91
13622, -191670, 91
13623, -191609, 91
13624, -191631, 91
13625, -193282, 93
13626, -193732, 93
13627, -194304, 93
13628, -194806, 93
13629, -195023, 93
13630, -195263, 93
13631, -195517, 93
13632, -195647, 93
13633, -195927, 93
13634, -196213, 93
13635, -196581, 93
13636, -196628, 93
13637, -196636, 93
13638, -196588, 93
13639, -196398, 93
13640, -196329, 93
13641, -196222, 93
13642, -196194, 93
13643, -195759, 93
13644, -195890, 93
13645, -195642, 93
13646, -195451, 93
13647, -195320, 93
13648, -195016, 93
13649, -194781, 93
13650, -194513, 93
13651, -194497, 93
13652, -194034, 93
13653, -193878, 93
13654, -193715, 93
13655, -193562, 93
13656, -193500, 93
13657, -193151, 93
13658, -192772, 93
13659, -192350, 93
13660, -192060, 93
13661, -191798, 93
13662, -191624, 93
13663, -191184, 93
13664, -190900, 93
13665, -190618, 93
13666, -190128, 93
13667, -189794, 93
13668, -189328, 93
13669, -188975, 93
13670, -188663, 93
13671, -188314, 93
13672, -187912, 93
13673, -187462, 93
13674, -186929, 93
13675, -189343, 93
13676, -189413, 93
13677, -189359, 93
13678, -189302, 93
13679, -189148, 93
13680, -188868, 93
13681, -188590, 93
13682, -188027, 93
13683, -188030, 93
13684, -187765, 93
13685, -187387, 93
13686, -187216, 93
13687, -186863, 93
13688, -186633, 93
13689, -186201, 93
13690, -185938, 93
13691, -185837, 93
13692, -185570, 93
13693, -185344, 93
13694, -185329, 93
13695, -185098, 93
13696, -184599, 93
13697, -184471, 93
13698, -184117, 93
13699, -183846, 93
13700, -182379, 93
13701, -182170, 93
13702, -181842, 93
13703, -181590, 93
13704, -181203, 93
13705, -180827, 93
13706, -180538, 93
13707, -180421, 93
13708, -180049, 93
13709, -179739, 93
13710, -179209, 93
13711, -178777, 93
13712, -178176, 93
13713, -177969, 93
13714, -177653, 93
13715, -177522, 93
13716, -177514, 93
13717, -177626, 93
13718, -179496, 93
13719, -179496, 93
13720, -179831, 93
13721, -180343, 93
13722, -180848, 93
13723, -181275, 93
13724, -181700, 93
13725, -177498, 93
13726, -177250, 93
13727, -177194, 93
13728, -177196, 93
13729, -177171, 93
13730, -176887, 93
13731, -176553, 93
13732, -176333, 93
13733, -175977, 93
13734, -175638, 93
13735, -175031, 93
13736, -174608, 93
13737, -174160, 93
13738, -173615, 93
13739, -173291, 93
13740, -172969, 93
13741, -172329, 93
13742, -171961, 93
13743, -171711, 93
13744, -171686, 93
13745, -171640, 93
13746, -171821, 93
13747, -171981, 93
13748, -172263, 93
13749, -172731, 93
13750, -173359, 93
13751, -173884, 93
13752, -174177, 93
13753, -174615, 93
13754, -174822, 93
13755, -175476, 93
13756, -175712, 93
13757, -175975, 93
13758, -175800, 93
13759, -176542, 93
13760, -176728, 93
13761, -176791, 93
13762, -176843, 93
13763, -176883, 93
13764, -176730, 93
13765, -176754, 93
13766, -176622, 93
13767, -176673, 93
13768, -176617, 93
13769, -176446, 93
13770, -176190, 93
13771, -176210, 93
13772, -175923, 93
13773, -175556, 93
13774, -175376, 93
13775, -175296, 93
13776, -175169, 93
13777, -175274, 93
13778, -175120, 93
13779, -174946, 93
13780, -174806, 93
13781, -174525, 93
13782, -174408, 93
13783, -174283, 93
13784, -173978, 93
13785, -173541, 93
13786, -173250, 93
13787, -173172, 93
13788, -172942, 93
13789, -172701, 93
13790, -172441, 93
13791, -172065, 93
13792, -171889, 93
13793, -171778, 93
13794, -171318, 93
13795, -171005, 93
13796, -170842, 93
13797, -170595, 93
13798, -170440, 93
13799, -170050, 93
13800, -169934, 93
13801, -169872, 93
13802, -169395, 93
13803, -169145, 93
13804, -168923, 93
13805, -168632, 93
13806, -168314, 93
13807, -168178, 93
13808, -167813, 93
13809, -167360, 93
13810, -166934, 93
13811, -165970, 93
13812, -165036, 93
13813, -164756, 93
13814, -164775, 93
13815, -164276, 93
13816, -164061, 93
13817, -164408, 93
13818, -164143, 93
13819, -164091, 93
13820, -164409, 93
13821, -164733, 93
13822, -165201, 93
13823, -165859, 93
13824, -166561, 93
13825, -166891, 93
13826, -167331, 93
13827, -167633, 93
13828, -167851, 93
13829, -168342, 93
13830, -168785, 93
13831, -169023, 93
13832, -169118, 93
13833, -169392, 93
13834, -169550, 93
13835, -169772, 93
13836, -169866, 93
13837, -169712, 93
13838, -169719, 93
13839, -169665, 93
13840, -169716, 93
13841, -169587, 93
13842, -169559, 93
13843, -169432, 93
13844, -169486, 93
13845, -169357, 93
13846, -169590, 93
13847, -169352, 93
13848, -169410, 93
13849, -169376, 93
13850, -169336, 93
13851, -169094, 93
13852, -169062, 93
13853, -168956, 93
13854, -168999, 93
13855, -168845, 93
13856, -168739, 93
13857, -168521, 93
13858, -168384, 93
13859, -167609, 93
13860, -167539, 93
13861, -167350, 93
13862, -167226, 93
13863, -167025, 93
13864, -166667, 93
13865, -166346, 93
13866, -165780, 93
13867, -165789, 93
13868, -165299, 93
13869, -164949, 93
13870, -164653, 93
13871, -164627, 93
13872, -164188, 93
13873, -163876, 93
13874, -163667, 93
13875, -163165, 85
13876, -162825, 85
13877, -162290, 85
13878, -162161, 85
13879, -161822, 85
13880, -161553, 85
13881, -161241, 85
13882, -161037, 85
13883, -160681, 85
13884, -160315, 85
13885, -159653, 85
13886, -159340, 85
13887, -159018, 85
13888, -158919, 85
13889, -158843, 85
13890, -159034, 85
13891, -159353, 85
13892, -159719, 85
13893, -159811, 85
13894, -160167, 85
13895, -160572, 85
13896, -160875, 85
13897, -161455, 85
13898, -161893, 85
13899, -162352, 85
13900, -163786, 85
13901, -163418, 85
13902, -163258, 85
13903, -163349, 85
13904, -163158, 85
13905, -162908, 85
13906, -162752, 85
13907, -162574, 85
13908, -162145, 85
13909, -161853, 85
13910, -161777, 85
13911, -161470, 85
13912, -161317, 85
13913, -161115, 85
13914, -160694, 85
13915, -160257, 85
13916, -160148, 85
13917, -160031, 85
13918, -159661, 85
13919, -159147, 85
13920, -158947, 85
13921, -158578, 85
13922, -158310, 85
13923, -157987, 85
13924, -157622, 85
13925, -157259, 85
13926, -157093, 85
13927, -156604, 85
13928, -156199, 85
13929, -156003, 85
13930, -155678, 85
13931, -155320, 85
13932, -155017, 85
13933, -154782, 85
13934, -154319, 85
13935, -153929, 85
13936, -153622, 85
13937, -153180, 85
13938, -152832, 85
13939, -152343, 85
13940, -152134, 85
13941, -151808, 85
13942, -151674, 85
13943, -151727, 85
13944, -151798, 85
13945, -152089, 85
13946, -152386, 85
13947, -152875, 85
13948, -153030, 85
13949, -153503, 85
13950, -153961, 85
13951, -154239, 85
13952, -154705, 85
13953, -154813, 85
13954, -154881, 85
13955, -155051, 85
13956, -155339, 85
13957, -155454, 85
13958, -155525, 85
13959, -155650, 85
13960, -155546, 85
13961, -155377, 85
13962, -155492, 85
13963, -155467, 85
13964, -155266, 85
13965, -155216, 85
13966, -155273, 85
13967, -155120, 85
13968, -155103, 85
13969, -155009, 85
13970, -155083, 85
13971, -154749, 85
13972, -154749, 85
13973, -154594, 85
13974, -154751, 85
13975, -154262, 85
13976, -154061, 85
13977, -153943, 85
13978, -154071, 85
13979, -153840, 85
13980, -153900, 85
13981, -153635, 85
13982, -153607, 85
13983, -153404, 85
13984, -153284, 85
13985, -153021, 85
13986, -153086, 85
13987, -152918, 85
13988, -152881, 85
13989, -152727, 85
13990, -152463, 85
13991, -152267, 85
13992, -151956, 85
13993, -151794, 85
13994, -151862, 85
13995, -151446, 85
13996, -151371, 85
13997, -151198, 85
13998, -150718, 85
13999, -150386, 85
14000, -150417, 85
14001, -149999, 85
14002, -149813, 85
14003, -149457, 85
14004, -149332, 85
14005, -149128, 85
14006, -148889, 85
14007, -148739, 85
14008, -148233, 85
14009, -148079, 85
14010, -147627, 85
14011, -147639, 85
14012, -147877, 85
14013, -147974, 85
14014, -148265, 85
14015, -148776, 85
14016, -149232, 85
14017, -149844, 85
14018, -150199, 85
14019, -150634, 85
14020, -151201, 85
14021, -151528, 85
14022, -152210, 85
14023, -152479, 85
14024, -152665, 85
14025, -152940, 85
14026, -153124, 85
14027, -153410, 85
14028, -153490, 85
14029, -153583, 85
14030, -153711, 85
14031, -153738, 85
14032, -153881, 85
14033, -153524, 85
14034, -153654, 85
14035, -153895, 85
14036, -153716, 85
14037, -153578, 85
14038, -153658, 85
14039, -153583, 85
14040, -153485, 85
14041, -153577, 85
14042, -153400, 85
14043, -153558, 85
14044, -153426, 85
14045, -153346, 85
14046, -153048, 85
14047, -153193, 85
14048, -153227, 85
14049, -153083, 85
14050, -152992, 85
14051, -152809, 85
14052, -152663, 85
14053, -152363, 85
14054, -152334, 85
14055, -152225, 85
14056, -151962, 85
14057, -151869, 85
14058, -151498, 85
14059, -151434, 85
14060, -151349, 85
14061, -151078, 85
14062, -150886, 85
14063, -150555, 85
14064, -150352, 85
14065, -149894, 85
14066, -149880, 85
14067, -149504, 85
14068, -149240, 85
14069, -149044, 85
14070, -148785, 85
14071, -148391, 85
14072, -148243, 85
14073, -147910, 85
14074, -147419, 85
14075, -147236, 80
14076, -146856, 80
14077, -146580, 80
14078, -146352, 80
14079, -145993, 80
14080, -145769, 80
14081, -145387, 80
14082, -145072, 80
14083, -144694, 80
14084, -144431, 80
14085, -144081, 80
14086, -143877, 80
14087, -143651, 80
14088, -143563, 80
14089, -143737, 80
14090, -143867, 80
14091, -144102, 80
14092, -144700, 80
14093, -144964, 80
14094, -145371, 80
14095, -146056, 80
14096, -146294, 80
14097, -146692, 80
14098, -146917, 80
14099, -147216, 80
14100, -147458, 80
14101, -147835, 80
14102, -147998, 80
14103, -148061, 80
14104, -148233, 80
14105, -148418, 80
14106, -148585, 80
14107, -148491, 80
14108, -148716, 80
14109, -148792, 80
14110, -148555, 80
14111, -148691, 80
14112, -148549, 80
14113, -148604, 80
14114, -148640, 80
14115, -148546, 80
14116, -148655, 80
14117, -148364, 80
14118, -148416, 80
14119, -148241, 80
14120, -148198, 80
14121, -148297, 80
14122, -148262, 80
14123, -148240, 80
14124, -148134, 80
14125, -147955, 80
14126, -147795, 80
14127, -147702, 80
14128, -147833, 80
14129, -147513, 80
14130, -147266, 80
14131, -147081, 80
14132, -146937, 80
14133, -146807, 80
14134, -146727, 80
14135, -146524, 80
14136, -146323, 80
14137, -146033, 80
14138, -145766, 80
14139, -145545, 80
14140, -145280, 80
14141, -145111, 80
14142, -144550, 80
14143, -144223, 80
14144, -144131, 80
14145, -143914, 80
14146, -143760, 80
14147, -143512, 80
14148, -143325, 80
14149, -142891, 80
14150, -142671, 80
14151, -142239, 80
14152, -142085, 80
14153, -141649, 80
14154, -141506, 80
14155, -141121, 80
14156, -140890, 80
14157, -140654, 80
14158, -140187, 80
14159, -139897, 80
14160, -139529, 80
14161, -139362, 80
14162, -139258, 80
14163, -139114, 80
14164, -139161, 80
14165, -139441, 80
14166, -139692, 80
14167, -140018, 80
14168, -140440, 80
14169, -141061, 80
14170, -141282, 80
14171, -141702, 80
14172, -142087, 80
14173, -142411, 80
14174, -142587, 80
14175, -142835, 80
14176, -143130, 80
14177, -143220, 80
14178, -143292, 80
14179, -143352, 80
14180, -143373, 80
14181, -143475, 80
14182, -143604, 80
14183, -143500, 80
14184, -143575, 80
14185, -143538, 80
14186, -143460, 80
14187, -143327, 80
14188, -143289, 80
14189, -143299, 80
14190, -143433, 80
14191, -143362, 80
14192, -143179, 80
14193, -143117, 80
14194, -143086, 80
14195, -143056, 80
14196, -143036, 80
14197, -142850, 80
14198, -142952, 80
14199, -143044, 80
14200, -143061, 80
14201, -142862, 80
14202, -142798, 80
14203, -142481, 80
14204, -142301, 80
14205, -142145, 80
14206, -142135, 80
14207, -141856, 80
14208, -141475, 80
14209, -141467, 80
14210, -141330, 80
14211, -140965, 80
14212, -140659, 80
14213, -140247, 80
14214, -139951, 80
14215, -139833, 80
14216, -139837, 80
14217, -139705, 80
14218, -139462, 80
14219, -139109, 80
14220, -138805, 80
14221, -138679, 80
14222, -138392, 80
14223, -138189, 80
14224, -137748, 80
14225, -137809, 83
14226, -137301, 83
14227, -137081, 83
14228, -136909, 83
14229, -136620, 83
14230, -136211, 83
14231, -135891, 83
14232, -135507, 83
14233, -135166, 83
14234, -134895, 83
14235, -134570, 83
14236, -134626, 83
14237, -134618, 83
14238, -134520, 83
14239, -134552, 83
14240, -134852, 83
14241, -135315, 83
14242, -135852, 83
14243, -136027, 83
14244, -136404, 83
14245, -136742, 83
14246, -137043, 83
14247, -137408, 83
14248, -137647, 83
14249, -137952, 83
14250, -138068, 83
14251, -138264, 83
14252, -138554, 83
14253, -138406, 83
14254, -138200, 83
14255, -138457, 83
14256, -138540, 83
14257, -138461, 83
14258, -138485, 83
14259, -138402, 83
14260, -138412, 83
14261, -138512, 83
14262, -138217, 83
14263, -138131, 83
14264, -138050, 83
14265, -137962, 83
14266, -138021, 83
14267, -137858, 83
14268, -137930, 83
14269, -138006, 83
14270, -137980, 83
14271, -137832, 83
14272, -137903, 83
14273, -137586, 83
14274, -137748, 83
14275, -137623, 83
14276, -137410, 83
14277, -137145, 83
14278, -137107, 83
14279, -137107, 83
14280, -136886, 83
14281, -136363, 83
14282, -136214, 83
14283, -136426, 83
14284, -136244, 83
14285, -136217, 83
14286, -135953, 83
14287, -135606, 83
14288, -135453, 83
14289, -135203, 83
14290, -135010, 83
14291, -134793, 83
14292, -134544, 83
14293, -134234, 83
14294, -134234, 83
14295, -133755, 83
14296, -133378, 83
14297, -133194, 83
14298, -132886, 83
14299, -132629, 83
14300, -132065, 83
14301, -132046, 83
14302, -131849, 83
14303, -131742, 83
14304, -131940, 83
14305, -132180, 83
14306, -132356, 83
14307, -132911, 83
14308, -133372, 83
14309, -133914, 83
14310, -134175, 83
14311, -134481, 83
14312, -134944, 83
14313, -135399, 83
14314, -135533, 83
14315, -135788, 83
14316, -136073, 83
14317, -136086, 83
14318, -136212, 83
14319, -136424, 83
14320, -136674, 83
14321, -136562, 83
14322, -136767, 83
14323, -136896, 83
14324, -136876, 83
14325, -136838, 83
14326, -136877, 83
14327, -136771, 83
14328, -136725, 83
14329, -136823, 83
14330, -136758, 83
14331, -136773, 83
14332, -136807, 83
14333, -136656, 83
14334, -136647, 83
14335, -136712, 83
14336, -136486, 83
14337, -136783, 83
14338, -136659, 83
14339, -136775, 83
14340, -136631, 83
14341, -136559, 83
14342, -136496, 83
14343, -136439, 83
14344, -136310, 83
14345, -136451, 83
14346, -136023, 83
14347, -135961, 83
14348, -135745, 83
14349, -135520, 83
14350, -135507, 83
14351, -135341, 83
14352, -135115, 83
14353, -134828, 83
14354, -134638, 83
14355, -134387, 83
14356, -133937, 83
14357, -133586, 83
14358, -133593, 83
14359, -133424, 83
14360, -133500, 83
14361, -133228, 83
14362, -132834, 83
14363, -132500, 83
14364, -132320, 83
14365, -132071, 83
14366, -131735, 83
14367, -131442, 83
14368, -131495, 83
14369, -131780, 83
14370, -131878, 83
14371, -132467, 83
14372, -132905, 83
14373, -133603, 83
14374, -134210, 83
14375, -134914, 83
14376, -135834, 83
14377, -136650, 83
14378, -137268, 83
14379, -138139, 83
14380, -138565, 83
14381, -139117, 83
14382, -139461, 83
14383, -139518, 83
14384, -139560, 83
14385, -139552, 83
14386, -139651, 83
14387, -139781, 83
14388, -140203, 83
14389, -140150, 83
14390, -140335, 83
14391, -140344, 83
14392, -140301, 83
14393, -140769, 83
14394, -140835, 83
14395, -141169, 83
14396, -141267, 83
14397, -141533, 83
14398, -141632, 83
14399, -141748, 83
14400, -141800, 83
14401, -142057, 83
14402, -142005, 83
14403, -142090, 83
14404, -142296, 83
14405, -142387, 83
14406, -142415, 83
14407, -142385, 83
14408, -142431, 83
14409, -142490, 83
14410, -142557, 83
14411, -142507, 83
14412, -142489, 83
14413, -142690, 83
14414, -142293, 83
14415, -142092, 83
14416, -142157, 83
14417, -142062, 83
14418, -142067, 83
14419, -142148, 83
14420, -141919, 83
14421, -141753, 83
14422, -141835, 83
14423, -141597, 83
14424, -140815, 83
14425, -140729, 83
14426, -140539, 83
14427, -140472, 83
14428, -140146, 83
14429, -140032, 83
14430, -139800, 83
14431, -139856, 83
14432, -139908, 83
14433, -140210, 83
14434, -140566, 83
14435, -141030, 83
14436, -141707, 83
14437, -142422, 83
14438, -143260, 83
14439, -143938, 83
14440, -144746, 83
14441, -145465, 83
14442, -146114, 83
14443, -146961, 83
14444, -147577, 83
14445, -147900, 83
14446, -148435, 83
14447, -148886, 83
14448, -149652, 83
14449, -149994, 83
14450, -150306, 88
14451, -150627, 88
14452, -150816, 88
14453, -151186, 88
14454, -151524, 88
14455, -151497, 88
14456, -151811, 88
14457, -152294, 88
14458, -152577, 88
14459, -152853, 88
14460, -153331, 88
14461, -153667, 88
14462, -153901, 88
14463, -154026, 88
14464, -154494, 88
14465, -154862, 88
14466, -155129, 88
14467, -155323, 88
14468, -155555, 88
14469, -155810, 88
14470, -156288, 88
14471, -156454, 88
14472, -156774, 88
14473, -156831, 88
14474, -157066, 88
14475, -157194, 88
14476, -157072, 88
14477, -156548, 88
14478, -156713, 88
14479, -157002, 88
14480, -157031, 88
14481, -157233, 88
14482, -157112, 88
14483, -156861, 88
14484, -156565, 88
14485, -156157, 88
14486, -155794, 88
14487, -155330, 88
14488, -155464, 88
14489, -155232, 88
14490, -154917, 88
14491, -154885, 88
14492, -154837, 88
14493, -154577, 88
14494, -154401, 88
14495, -154371, 88
14496, -154158, 88
14497, -154162, 88
14498, -153862, 88
14499, -154120, 88
14500, -154297, 88
14501, -154535, 88
14502, -154937, 88
14503, -155748, 88
14504, -156718, 88
14505, -157634, 88
14506, -158256, 88
14507, -159228, 88
14508, -160210, 88
14509, -161290, 88
14510, -162016, 88
14511, -162726, 88
14512, -163619, 88
14513, -164287, 88
14514, -164899, 88
14515, -165509, 88
14516, -166149, 88
14517, -166739, 88
14518, -167535, 88
14519, -167731, 88
14520, -168104, 88
14521, -168408, 88
14522, -168504, 88
14523, -168883, 88
14524, -169845, 88
14525, -169958, 88
14526, -170052, 88
14527, -170216, 88
14528, -170866, 88
14529, -171288, 88
14530, -171519, 88
14531, -171976, 88
14532, -172213, 88
14533, -172524, 88
14534, -172660, 88
14535, -172928, 88
14536, -173178, 88
14537, -173328, 88
14538, -173564, 88
14539, -173637, 88
14540, -173685, 88
14541, -173948, 88
14542, -173864, 88
14543, -173864, 88
14544, -173946, 88
14545, -174014, 88
14546, -173895, 88
14547, -173934, 88
14548, -173920, 88
14549, -174054, 88
14550, -173877, 88
14551, -173756, 88
14552, -173500, 88
14553, -173452, 88
14554, -173565, 88
14555, -173520, 88
14556, -173336, 88
14557, -173050, 88
14558, -172874, 88
14559, -172506, 88
14560, -172271, 88
14561, -171542, 88
14562, -171326, 88
14563, -171158, 88
14564, -171380, 88
14565, -172015, 88
14566, -172530, 88
14567, -173298, 88
14568, -174187, 88
14569, -175545, 88
14570, -176623, 88
14571, -177572, 88
14572, -178761, 88
14573, -179949, 88
14574, -181152, 88
14575, -181998, 88
14576, -182918, 88
14577, -183736, 88
14578, -184322, 88
14579, -185016, 88
14580, -185692, 88
14581, -186464, 88
14582, -186936, 88
14583, -187464, 88
14584, -187925, 88
14585, -188108, 88
14586, -188457, 88
14587, -188608, 88
14588, -188986, 88
14589, -189205, 88
14590, -189399, 88
14591, -189604, 88
14592, -189780, 88
14593, -190146, 88
14594, -190516, 88
14595, -190755, 88
14596, -191106, 88
14597, -191439, 88
14598, -191540, 88
14599, -191743, 88
14600, -191801, 87
14601, -191638, 87
14602, -191640, 87
14603, -191879, 87
14604, -191787, 87
14605, -191928, 87
14606, -192124, 87
14607, -192034, 87
14608, -192143, 87
14609, -191738, 87
14610, -191818, 87
14611, -191485, 87
14612, -191486, 87
14613, -191413, 87
14614, -191290, 87
14615, -191227, 87
14616, -190766, 87
14617, -190669, 87
14618, -190169, 87
14619, -189992, 87
14620, -189837, 87
14621, -189568, 87
14622, -189396, 87
14623, -189252, 87
14624, -188950, 87
14625, -188666, 87
14626, -188388, 87
14627, -188078, 87
14628, -187758, 87
14629, -187628, 87
14630, -187206, 87
14631, -187284, 87
14632, -187378, 87
14633, -188111, 87
14634, -188467, 87
14635, -189439, 87
14636, -190673, 87
14637, -191953, 87
14638, -192965, 87
14639, -194062, 87
14640, -195454, 87
14641, -196543, 87
14642, -197591, 87
14643, -198647, 87
14644, -199638, 87
14645, -200372, 87
14646, -201108, 87
14647, -201771, 87
14648, -202616, 87
14649, -202945, 87
14650, -206535, 87
14651, -206379, 87
14652, -206545, 87
14653, -206485, 87
14654, -206644, 87
14655, -206428, 87
14656, -206234, 87
14657, -206129, 87
14658, -206040, 87
14659, -206182, 87
14660, -205676, 87
14661, -205717, 87
14662, -205499, 87
14663, -205243, 87
14664, -204721, 87
14665, -204531, 87
14666, -204446, 87
14667, -204168, 87
14668, -204001, 87
14669, -203395, 87
14670, -202937, 87
14671, -202663, 87
14672, -202252, 87
14673, -202022, 87
14674, -201667, 87
14675, -201339, 87
14676, -200900, 87
14677, -200534, 87
14678, -200114, 87
14679, -199670, 87
14680, -199359, 87
14681, -198930, 87
14682, -198601, 87
14683, -198194, 87
14684, -197570, 87
14685, -197138, 87
14686, -196761, 87
14687, -196277, 87
14688, -195992, 87
14689, -196069, 87
14690, -196421, 87
14691, -196771, 87
14692, -197463, 87
14693, -198366, 87
14694, -199220, 87
14695, -200329, 87
14696, -201232, 87
14697, -202298, 87
14698, -203051, 87
14699, -204072, 87
14700, -204866, 87
14701, -205581, 87
14702, -206139, 87
14703, -206923, 87
14704, -207303, 87
14705, -208025, 87
14706, -208612, 87
14707, -209116, 87
14708, -209300, 87
14709, -209478, 87
14710, -209646, 87
14711, -209607, 87
14712, -209736, 87
14713, -209822, 87
14714, -209837, 87
14715, -209984, 87
14716, -209842, 87
14717, -209828, 87
14718, -209956, 87
14719, -210001, 87
14720, -210099, 87
14721, -210248, 87
14722, -210176, 87
14723, -210040, 87
14724, -210142, 87
14725, -210153, 87
14726, -210326, 87
14727, -210172, 87
14728, -210013, 87
14729, -209632, 87
14730, -209533, 87
14731, -209331, 87
14732, -209153, 87
14733, -208934, 87
14734, -208820, 87
14735, -208287, 87
14736, -208151, 87
14737, -207800, 87
14738, -207530, 87
14739, -207066, 87
14740, -206769, 87
14741, -206375, 87
14742, -205896, 87
14743, -205529, 87
14744, -205206, 87
14745, -204694, 87
14746, -204292, 87
14747, -204054, 87
14748, -203609, 87
14749, -203110, 87
14750, -202585, 82
14751, -202222, 82
14752, -201487, 82
14753, -201106, 82
14754, -200674, 82
14755, -200369, 82
14756, -199887, 82
14757, -199313, 82
14758, -199065, 82
14759, -198617, 82
14760, -198059, 82
14761, -197552, 82
14762, -196972, 82
14763, -196695, 82
14764, -195949, 82
14765, -195536, 82
14766, -195145, 82
14767, -195019, 82
14768, -195007, 82
14769, -195676, 82
14770, -196322, 82
14771, -197230, 82
14772, -198114, 82
14773, -199159, 82
14774, -200164, 82
14775, -201113, 82
14776, -202011, 82
14777, -202696, 82
14778, -203088, 82
14779, -203824, 82
14780, -204564, 82
14781, -204813, 82
14782, -205284, 82
14783, -205723, 82
14784, -206208, 82
14785, -206189, 82
14786, -205744, 82
14787, -205453, 82
14788, -204914, 82
14789, -204578, 82
14790, -204581, 82
14791, -204615, 82
14792, -204517, 82
14793, -204496, 82
14794, -204438, 82
14795, -204386, 82
14796, -204367, 82
14797, -204497, 82
14798, -204418, 82
14799, -204340, 82
14800, -204181, 82
14801, -204015, 82
14802, -203809, 82
14803, -203629, 82
14804, -203377, 82
14805, -203163, 82
14806, -203097, 82
14807, -203081, 82
14808, -202773, 82
14809, -202229, 82
14810, -202045, 82
14811, -201785, 82
14812, -201506, 82
14813, -201189, 82
14814, -200769, 82
14815, -200460, 82
14816, -200076, 82
14817, -199778, 82
14818, -199251, 82
14819, -198680, 82
14820, -198242, 82
14821, -197976, 82
14822, -197548, 82
14823, -197116, 82
14824, -196582, 82
14825, -196240, 82
14826, -195488, 82
14827, -195203, 82
14828, -194551, 82
14829, -194201, 82
14830, -193792, 82
14831, -193379, 82
14832, -191564, 82
14833, -191231, 82
14834, -190651, 82
14835, -190014, 82
14836, -189323, 82
14837, -189123, 82
14838, -188771, 82
14839, -188743, 82
14840, -188851, 82
14841, -189012, 82
14842, -189519, 82
14843, -190213, 82
14844, -190789, 82
14845, -191781, 82
14846, -192760, 82
14847, -193585, 82
14848, -194365, 82
14849, -195006, 82
14850, -195710, 82
14851, -196166, 82
14852, -196518, 82
14853, -196716, 82
14854, -197219, 82
14855, -197613, 82
14856, -197766, 82
14857, -197852, 82
14858, -197980, 82
14859, -198179, 82
14860, -198130, 82
14861, -197997, 82
14862, -197914, 82
14863, -197956, 82
14864, -197902, 82
14865, -197564, 82
14866, -197514, 82
14867, -197411, 82
14868, -197748, 82
14869, -197678, 82
14870, -197670, 82
14871, -197877, 82
14872, -197966, 82
14873, -198283, 82
14874, -198343, 82
14875, -198156, 82
14876, -198232, 82
14877, -198454, 82
14878, -198543, 82
14879, -198627, 82
14880, -198373, 82
14881, -198344, 82
14882, -198071, 82
14883, -197581, 82
14884, -196974, 82
14885, -196305, 82
14886, -195537, 82
14887, -195286, 82
14888, -194944, 82
14889, -194540, 82
14890, -193768, 82
14891, -193478, 82
14892, -193303, 82
14893, -192753, 82
14894, -192404, 82
14895, -191973, 82
14896, -191596, 82
14897, -190991, 82
14898, -190581, 82
14899, -190116, 82
14900, -189821, 82
14901, -189318, 82
14902, -188869, 82
14903, -188310, 82
14904, -187729, 82
14905, -187392, 82
14906, -186813, 82
14907, -185754, 82
14908, -185272, 82
14909, -184564, 82
14910, -184101, 82
14911, -183778, 82
14912, -183573, 82
14913, -183580, 82
14914, -183642, 82
14915, -183966, 82
14916, -184668, 82
14917, -185543, 82
14918, -186369, 82
14919, -187383, 82
14920, -188155, 82
14921, -188960, 82
14922, -189665, 82
14923, -190323, 82
14924, -190918, 82
14925, -193522, 82
14926, -193836, 82
14927, -193713, 82
14928, -193884, 82
14929, -193730, 82
14930, -193677, 82
14931, -193872, 82
14932, -193852, 82
14933, -193910, 82
14934, -194083, 82
14935, -193985, 82
14936, -193679, 82
14937, -193589, 82
14938, -193402, 82
14939, -193564, 82
14940, -193505, 82
14941, -193488, 82
14942, -193318, 82
14943, -193265, 82
14944, -193156, 82
14945, -192912, 82
14946, -192744, 82
14947, -192559, 82
14948, -192534, 82
14949, -192282, 82
14950, -186828, 82
14951, -186481, 82
14952, -186039, 82
14953, -185340, 82
14954, -185077, 82
14955, -184542, 82
14956, -184016, 82
14957, -183652, 82
14958, -183189, 82
14959, -182952, 82
14960, -182521, 82
14961, -181820, 82
14962, -181312, 82
14963, -180868, 82
14964, -180510, 82
14965, -179967, 82
14966, -179397, 82
14967, -178958, 82
14968, -178539, 82
14969, -178418, 82
14970, -178410, 82
14971, -178791, 82
14972, -179213, 82
14973, -179699, 82
14974, -180503, 82
14975, -181199, 82
14976, -182114, 82
14977, -182880, 82
14978, -183609, 82
14979, -184223, 82
14980, -184764, 82
14981, -185483, 82
14982, -185788, 82
14983, -186250, 82
14984, -186412, 82
14985, -186878, 82
14986, -186930, 82
14987, -187181, 82
14988, -187275, 82
14989, -187409, 82
14990, -187471, 82
14991, -187552, 82
14992, -187262, 82
14993, -187178, 82
14994, -187074, 82
14995, -186933, 82
14996, -187075, 82
14997, -187021, 82
14998, -186780, 82
14999, -186700, 82
15000, -186531, 82
15001, -186591, 82
15002, -185914, 82
15003, -185523, 82
15004, -185457, 82
15005, -185781, 82
15006, -186040, 82
15007, -186190, 82
15008, -186231, 82
15009, -186117, 82
15010, -186015, 82
15011, -185432, 82
15012, -185074, 82
15013, -184854, 82
15014, -184633, 82
15015, -184358, 82
15016, -184116, 82
15017, -183694, 82
15018, -183100, 82
15019, -182923, 82
15020, -182455, 82
15021, -182092, 82
15022, -181873, 82
15023, -181382, 82
15024, -181126, 82
15025, -173704, 88
15026, -173150, 88
15027, -172768, 88
15028, -172520, 88
15029, -172360, 88
15030, -172495, 88
15031, -172769, 88
15032, -173335, 88
15033, -173850, 88
15034, -174357, 88
15035, -175017, 88
15036, -175696, 88
15037, -176101, 88
15038, -176803, 88
15039, -177270, 88
15040, -177655, 88
15041, -177899, 88
15042, -178137, 88
15043, -178424, 88
15044, -178694, 88
15045, -178751, 88
15046, -178951, 88
15047, -178815, 88
15048, -178815, 88
15049, -178620, 88
15050, -178307, 88
15051, -177962, 88
15052, -178025, 88
15053, -177919, 88
15054, -177735, 88
15055, -177627, 88
15056, -177687, 88
15057, -177441, 88
15058, -177317, 88
15059, -176995, 88
15060, -177200, 88
15061, -176970, 88
15062, -176944, 88
15063, -176755, 88
15064, -176748, 88
15065, -176583, 88
15066, -176371, 88
15067, -176220, 88
15068, -176084, 88
15069, -175705, 88
15070, -175506, 88
15071, -175311, 88
15072, -174909, 88
15073, -174879, 88
15074, -174598, 88
15075, -170952, 88
15076, -170483, 88
15077, -170172, 88
15078, -169838, 88
15079, -169333, 88
15080, -169018, 88
15081, -168420, 88
15082, -168041, 88
15083, -167655, 88
15084, -167022, 88
15085, -166944, 88
15086, -166706, 88
15087, -166720, 88
15088, -166738, 88
15089, -167347, 88
15090, -167763, 88
15091, -168261, 88
15092, -169171, 88
15093, -170218, 88
15094, -171110, 88
15095, -171695, 88
15096, -172728, 88
15097, -173489, 88
15098, -174150, 88
15099, -174589, 88
15100, -176235, 88
15101, -176052, 88
15102, -176176, 88
15103, -175941, 88
15104, -175946, 88
15105, -176006, 88
15106, -175943, 88
15107, -175644, 88
15108, -175839, 88
15109, -175549, 88
15110, -175362, 88
15111, -174965, 88
15112, -174721, 88
15113, -174514, 88
15114, -174393, 88
15115, -174089, 88
15116, -173749, 88
15117, -173316, 88
15118, -173007, 88
15119, -172676, 88
15120, -172467, 88
15121, -171777, 88
15122, -171777, 88
15123, -171637, 88
15124, -171100, 88
15125, -170939, 91
15126, -170289, 91
15127, -169933, 91
15128, -169718, 91
15129, -169387, 91
15130, -169227, 91
15131, -168650, 91
15132, -168190, 91
15133, -167737, 91
15134, -167540, 91
15135, -167420, 91
15136, -167404, 91
15137, -167524, 91
15138, -167951, 91
15139, -168435, 91
15140, -169507, 91
15141, -170406, 91
15142, -171337, 91
15143, -172395, 91
15144, -173389, 91
15145, -174261, 91
15146, -175131, 91
15147, -175970, 91
15148, -176637, 91
15149, -177521, 91
15150, -182015, 91
15151, -182180, 91
15152, -182290, 91
15153, -182655, 91
15154, -182803, 91
15155, -183010, 91
15156, -183139, 91
15157, -183235, 91
15158, -183224, 91
15159, -183357, 91
15160, -183451, 91
15161, -183535, 91
15162, -183596, 91
15163, -183451, 91
15164, -183638, 91
15165, -183634, 91
15166, -183778, 91
15167, -183516, 91
15168, -183686, 91
15169, -183537, 91
15170, -183342, 91
15171, -183303, 91
15172, -182939, 91
15173, -183061, 91
15174, -182656, 91
15175, -184335, 91
15176, -185567, 91
15177, -186552, 91
15178, -187603, 91
15179, -188550, 91
15180, -189513, 91
15181, -190321, 91
15182, -190835, 91
15183, -191414, 91
15184, -191845, 91
15185, -192339, 91
15186, -192956, 91
15187, -193368, 91
15188, -193855, 91
15189, -193986, 91
15190, -194734, 91
15191, -194996, 91
15192, -195430, 91
15193, -195424, 91
15194, -195628, 91
15195, -195804, 91
15196, -195964, 91
15197, -196284, 91
15198, -196394, 91
15199, -196481, 91
15200, -192860, 91
15201, -192500, 91
15202, -191993, 91
15203, -191502, 91
15204, -191101, 91
15205, -190712, 91
15206, -190194, 91
15207, -189839, 91
15208, -189486, 91
15209, -189251, 91
15210, -189399, 91
15211, -189752, 91
15212, -190196, 91
15213, -190846, 91
15214, -192134, 91
15215, -193149, 91
15216, -194478, 91
15217, -195633, 91
15218, -196694, 91
15219, -199024, 91
15220, -200019, 91
15221, -200744, 91
15222, -201452, 91
15223, -202178, 91
15224, -202541, 91
15225, -205818, 89
15226, -205533, 89
15227, -205769, 89
15228, -205757, 89
15229, -205654, 89
15230, -205376, 89
15231, -205469, 89
15232, -205235, 89
15233, -205434, 89
15234, -205051, 89
15235, -204979, 89
15236, -204548, 89
15237, -204555, 89
15238, -204161, 89
15239, -203900, 89
15240, -203507, 89
15241, -203142, 89
15242, -202735, 89
15243, -202477, 89
15244, -202208, 89
15245, -201846, 89
15246, -201439, 89
15247, -200959, 89
15248, -200663, 89
15249, -200335, 89
15250, -213127, 89
15251, -213499, 89
15252, -213660, 89
15253, -213660, 89
15254, -213782, 89
15255, -213833, 89
15256, -213825, 89
15257, -213938, 89
15258, -214100, 89
15259, -214014, 89
15260, -214167, 89
15261, -214227, 89
15262, -214423, 89
15263, -214594, 89
15264, -214525, 89
15265, -214579, 89
15266, -214295, 89
15267, -214462, 89
15268, -214169, 89
15269, -214089, 89
15270, -213840, 89
15271, -213754, 89
15272, -213497, 89
15273, -213169, 89
15274, -212686, 89
15275, -209327, 89
15276, -210786, 89
15277, -212110, 89
15278, -213229, 89
15279, -214528, 89
15280, -215613, 89
15281, -216648, 89
15282, -217729, 89
15283, -218340, 89
15284, -218953, 89
15285, -219630, 89
15286, -220349, 89
15287, -220797, 89
15288, -221115, 89
15289, -221558, 89
15290, -221794, 89
15291, -221762, 89
15292, -222129, 89
15293, -222141, 89
15294, -222229, 89
15295, -222168, 89
15296, -222342, 89
15297, -222270, 89
15298, -222420, 89
15299, -222448, 89
15300, -222374, 89
15301, -222159, 89
15302, -222296, 89
15303, -222121, 89
15304, -222205, 89
15305, -222123, 89
15306, -221934, 89
15307, -221849, 89
15308, -221416, 89
15309, -221058, 89
15310, -220955, 89
15311, -220840, 89
15312, -220717, 89
15313, -220377, 89
15314, -220199, 89
15315, -219815, 89
15316, -219379, 89
15317, -218960, 89
15318, -218364, 89
15319, -218112, 89
15320, -217711, 89
15321, -217200, 89
15322, -216651, 89
15323, -216321, 89
15324, -215587, 89
15325, -215184, 90
15326, -214629, 90
15327, -214080, 90
15328, -213563, 90
15329, -213186, 90
15330, -212562, 90
15331, -211995, 90
15332, -211449, 90
15333, -210733, 90
15334, -210279, 90
15335, -209787, 90
15336, -209204, 90
15337, -208670, 90
15338, -208584, 90
15339, -208595, 90
15340, -209054, 90
15341, -209684, 90
15342, -210679, 90
15343, -212052, 90
15344, -213081, 90
15345, -214273, 90
15346, -215422, 90
15347, -216072, 90
15348, -217430, 90
15349, -218557, 90
15350, -219569, 90
15351, -220202, 90
15352, -220790, 90
15353, -221250, 90
15354, -221783, 90
15355, -222128, 90
15356, -222593, 90
15357, -222977, 90
15358, -223188, 90
15359, -223297, 90
15360, -223668, 90
15361, -223616, 90
15362, -223602, 90
15363, -223539, 90
15364, -223502, 90
15365, -223235, 90
15366, -223357, 90
15367, -223034, 90
15368, -223041, 90
15369, -223050, 90
15370, -223118, 90
15371, -222916, 90
15372, -222836, 90
15373, -222385, 90
15374, -222234, 90
15375, -222220, 90
15376, -222095, 90
15377, -222125, 90
15378, -221665, 90
15379, -221372, 90
15380, -220953, 90
15381, -219484, 90
15382, -219058, 90
15383, -218341, 90
15384, -217750, 90
15385, -217436, 90
15386, -216922, 90
15387, -216414, 90
15388, -215833, 90
15389, -215438, 90
15390, -215017, 90
15391, -214433, 90
15392, -213831, 90
15393, -213376, 90
15394, -212869, 90
15395, -211904, 90
15396, -211491, 90
15397, -211242, 90
15398, -210698, 90
15399, -209986, 90
15400, -209673, 90
15401, -208838, 90
15402, -208303, 90
15403, -207753, 90
15404, -207339, 90
15405, -206733, 90
15406, -206792, 90
15407, -206737, 90
15408, -207419, 90
15409, -208076, 90
15410, -208877, 90
15411, -210203, 90
15412, -211364, 90
15413, -212398, 90
15414, -213470, 90
15415, -214648, 90
15416, -215554, 90
15417, -216164, 90
15418, -217120, 90
15419, -217498, 90
15420, -217955, 90
15421, -218490, 90
15422, -218768, 90
15423, -219022, 90
15424, -219138, 90
15425, -218390, 92
15426, -218324, 92
15427, -218289, 92
15428, -218226, 92
15429, -218167, 92
15430, -217858, 92
15431, -217473, 92
15432, -217034, 92
15433, -216925, 92
15434, -216609, 92
15435, -216259, 92
15436, -215934, 92
15437, -215396, 92
15438, -215058, 92
15439, -214483, 92
15440, -214008, 92
15441, -213443, 92
15442, -213065, 92
15443, -212727, 92
15444, -212132, 92
15445, -209980, 92
15446, -209437, 92
15447, -208922, 92
15448, -208271, 92
15449, -207787, 92
15450, -210839, 92
15451, -210839, 92
15452, -211278, 92
15453, -212000, 92
15454, -212449, 92
15455, -212702, 92
15456, -213055, 92
15457, -213504, 92
15458, -213683, 92
15459, -213806, 92
15460, -213793, 92
15461, -213556, 92
15462, -213677, 92
15463, -213597, 92
15464, -213685, 92
15465, -213605, 92
15466, -213348, 92
15467, -213199, 92
15468, -213264, 92
15469, -213208, 92
15470, -213111, 92
15471, -213312, 92
15472, -213153, 92
15473, -212921, 92
15474, -212624, 92
15475, -201944, 92
15476, -201483, 92
15477, -199316, 92
15478, -198575, 92
15479, -197936, 92
15480, -197346, 92
15481, -196970, 92
15482, -196023, 92
15483, -195681, 92
15484, -195146, 92
15485, -195029, 92
15486, -195074, 92
15487, -195398, 92
15488, -195782, 92
15489, -196568, 92
15490, -197396, 92
15491, -198395, 92
15492, -199515, 92
15493, -200531, 92
15494, -200982, 92
15495, -202039, 92
15496, -202652, 92
15497, -203320, 92
15498, -203740, 92
15499, -204407, 92
15500, -204044, 92
15501, -203783, 92
15502, -203540, 92
15503, -203259, 92
15504, -202980, 92
15505, -202662, 92
15506, -200307, 92
15507, -200307, 92
15508, -199923, 92
15509, -199396, 92
15510, -199063, 92
15511, -198573, 92
15512, -198200, 92
15513, -197770, 92
15514, -197358, 92
15515, -196815, 92
15516, -196303, 92
15517, -195761, 92
15518, -195343, 92
15519, -194876, 92
15520, -194127, 92
15521, -193619, 92
15522, -193341, 92
15523, -192778, 92
15524, -192515, 92
15525, -193615, 88
15526, -193271, 88
15527, -192955, 88
15528, -192889, 88
15529, -192366, 88
15530, -192304, 88
15531, -191842, 88
15532, -191441, 88
15533, -190959, 88
15534, -190779, 88
15535, -190320, 88
15536, -190007, 88
15537, -189181, 88
15538, -188999, 88
15539, -188478, 88
15540, -188081, 88
15541, -186548, 88
15542, -186021, 88
15543, -185593, 88
15544, -184919, 88
15545, -184514, 88
15546, -183923, 88
15547, -183361, 88
15548, -182976, 88
15549, -182264, 88
15550, -184146, 88
15551, -185031, 88
15552, -186056, 88
15553, -186909, 88
15554, -187713, 88
15555, -188359, 88
15556, -189045, 88
15557, -189533, 88
15558, -189937, 88
15559, -190450, 88
15560, -191007, 88
15561, -191143, 88
15562, -191351, 88
15563, -191554, 88
15564, -191518, 88
15565, -191650, 88
15566, -191583, 88
15567, -191612, 88
15568, -191373, 88
15569, -191266, 88
15570, -191144, 88
15571, -191221, 88
15572, -191032, 88
15573, -191017, 88
15574, -190733, 88
15575, -183137, 88
15576, -184120, 88
15577, -184949, 88
15578, -185499, 88
15579, -186240, 88
15580, -186892, 88
15581, -187396, 88
15582, -187811, 88
15583, -188238, 88
15584, -188545, 88
15585, -188705, 88
15586, -188898, 88
15587, -188953, 88
15588, -189197, 88
15589, -188988, 88
15590, -189042, 88
15591, -188923, 88
15592, -188943, 88
15593, -188808, 88
15594, -188769, 88
15595, -188798, 88
15596, -188537, 88
15597, -188521, 88
15598, -188461, 88
15599, -188284, 88
15600, -187219, 88
15601, -186944, 88
15602, -186787, 88
15603, -186452, 88
15604, -186072, 88
15605, -185783, 88
15606, -185466, 88
15607, -184770, 88
15608, -184524, 88
15609, -184165, 88
15610, -183861, 88
15611, -183153, 88
15612, -182990, 88
15613, -182439, 88
15614, -182090, 88
15615, -181627, 88
15616, -181143, 88
15617, -180777, 88
15618, -180344, 88
15619, -179771, 88
15620, -179326, 88
15621, -178955, 88
15622, -178749, 88
15623, -178628, 88
15624, -179234, 88
15625, -185186, 85
15626, -184596, 85
15627, -184175, 85
15628, -183977, 85
15629, -183672, 85
15630, -183028, 85
15631, -182399, 85
15632, -182140, 85
15633, -181640, 85
15634, -181206, 85
15635, -180725, 85
15636, -180237, 85
15637, -179750, 85
15638, -179261, 85
15639, -178688, 85
15640, -178144, 85
15641, -177719, 85
15642, -177042, 85
15643, -176403, 85
15644, -176066, 85
15645, -175854, 85
15646, -175891, 85
15647, -176128, 85
15648, -176260, 85
15649, -177352, 85
15650, -185859, 85
15651, -186171, 85
15652, -186553, 85
15653, -186741, 85
15654, -187070, 85
15655, -187226, 85
15656, -187312, 85
15657, -187344, 85
15658, -187359, 85
15659, -187232, 85
15660, -187331, 85
15661, -187146, 85
15662, -187065, 85
15663, -186799, 85
15664, -186851, 85
15665, -186912, 85
15666, -186720, 85
15667, -186442, 85
15668, -186442, 85
15669, -186013, 85
15670, -185739, 85
15671, -185952, 85
15672, -185757, 85
15673, -185685, 85
15674, -185277, 85
15675, -184278, 85
15676, -184701, 85
15677, -185321, 85
15678, -185657, 85
15679, -185562, 85
15680, -185617, 85
15681, -185476, 85
15682, -185375, 85
15683, -185315, 85
15684, -185221, 85
15685, -184964, 85
15686, -184927, 85
15687, -184921, 85
15688, -184792, 85
15689, -184634, 85
15690, -184336, 85
15691, -184322, 85
15692, -184259, 85
15693, -184296, 85
15694, -184095, 85
15695, -183866, 85
15696, -183676, 85
15697, -183306, 85
15698, -183037, 85
15699, -182808, 85
15700, -177264, 85
15701, -176660, 85
15702, -176165, 85
15703, -175935, 85
15704, -175249, 85
15705, -174808, 85
15706, -174254, 85
15707, -173731, 85
15708, -173198, 85
15709, -172721, 85
15710, -172142, 85
15711, -171448, 85
15712, -170924, 85
15713, -170374, 85
15714, -169747, 85
15715, -169052, 85
15716, -168509, 85
15717, -168337, 85
15718, -167913, 85
15719, -167975, 85
15720, -168349, 85
15721, -168689, 85
15722, -169304, 85
15723, -170196, 85
15724, -170789, 85
15725, -173370, 85
15726, -172948, 85
15727, -172781, 85
15728, -172126, 85
15729, -171571, 85
15730, -171364, 85
15731, -171039, 85
15732, -170692, 85
15733, -170404, 85
15734, -169786, 85
15735, -169496, 85
15736, -168919, 85
15737, -168542, 85
15738, -168189, 85
15739, -167629, 85
15740, -167139, 85
15741, -166884, 85
15742, -166502, 85
15743, -165857, 85
15744, -165317, 85
15745, -164882, 85
15746, -164374, 85
15747, -163892, 85
15748, -163337, 85
15749, -162733, 85
15750, -160134, 86
15751, -159883, 86
15752, -159809, 86
15753, -159795, 86
15754, -159962, 86
15755, -160444, 86
15756, -160890, 86
15757, -161324, 86
15758, -162094, 86
15759, -162745, 86
15760, -163408, 86
15761, -164101, 86
15762, -164268, 86
15763, -164680, 86
15764, -165019, 86
15765, -165261, 86
15766, -165542, 86
15767, -165727, 86
15768, -165791, 86
15769, -165779, 86
15770, -165715, 86
15771, -165562, 86
15772, -165629, 86
15773, -165565, 86
15774, -165545, 86
15775, -148811, 86
15776, -148504, 86
15777, -148413, 86
15778, -148375, 86
15779, -148623, 86
15780, -149172, 86
15781, -149517, 86
15782, -150061, 86
15783, -150456, 86
15784, -150981, 86
15785, -151718, 86
15786, -152623, 86
15787, -152963, 86
15788, -153535, 86
15789, -153942, 86
15790, -154876, 86
15791, -154876, 86
15792, -154893, 86
15793, -155114, 86
15794, -155032, 86
15795, -155077, 86
15796, -155116, 86
15797, -155157, 86
15798, -155003, 86
15799, -154833, 86
15800, -153657, 86
15801, -153473, 86
15802, -153436, 86
15803, -153190, 86
15804, -152869, 86
15805, -152812, 86
15806, -152590, 86
15807, -152314, 86
15808, -152127, 86
15809, -151694, 86
15810, -151731, 86
15811, -151028, 86
15812, -150685, 86
15813, -150802, 86
15814, -150092, 86
15815, -149666, 86
15816, -149462, 86
15817, -148985, 86
15818, -148442, 86
15819, -148040, 86
15820, -147597, 86
15821, -147305, 86
15822, -146842, 86
15823, -146496, 86
15824, -146011, 86
15825, -145221, 86
15826, -145066, 86
15827, -144952, 86
15828, -144986, 86
15829, -144970, 86
15830, -144601, 86
15831, -144469, 86
15832, -144336, 86
15833, -144143, 86
15834, -143997, 86
15835, -143664, 86
15836, -143608, 86
15837, -143131, 86
15838, -142969, 86
15839, -143002, 86
15840, -142642, 86
15841, -142348, 86
15842, -141898, 86
15843, -140687, 86
15844, -140687, 86
15845, -140077, 86
15846, -139870, 86
15847, -139531, 86
15848, -139051, 86
15849, -138617, 86
15850, -129242, 85
15851, -129177, 85
15852, -129363, 85
15853, -129870, 85
15854, -130447, 85
15855, -130696, 85
15856, -131445, 85
15857, -131873, 85
15858, -132050, 85
15859, -132665, 85
15860, -133042, 85
15861, -133357, 85
15862, -133364, 85
15863, -133823, 85
15864, -134096, 85
15865, -134002, 85
15866, -134085, 85
15867, -133930, 85
15868, -134033, 85
15869, -133978, 85
15870, -134026, 85
15871, -133589, 85
15872, -133631, 85
15873, -133572, 85
15874, -133491, 85
15875, -128527, 85
15876, -128129, 85
15877, -127672, 85
15878, -127476, 85
15879, -127117, 85
15880, -126577, 85
15881, -126090, 85
15882, -125777, 85
15883, -125411, 85
15884, -125112, 85
15885, -124862, 85
15886, -124375, 85
15887, -124078, 85
15888, -123700, 85
15889, -123208, 85
15890, -122875, 85
15891, -122335, 85
15892, -121825, 85
15893, -121513, 85
15894, -121088, 85
15895, -120650, 85
15896, -120352, 85
15897, -120069, 85
15898, -120097, 85
15899, -121060, 85
15900, -124156, 85
15901, -124019, 85
15902, -124048, 85
15903, -123865, 85
15904, -123738, 85
15905, -123497, 85
15906, -123466, 85
15907, -123357, 85
15908, -123078, 85
15909, -122864, 85
15910, -122566, 85
15911, -122360, 85
15912, -122137, 85
15913, -122061, 85
15914, -121719, 85
15915, -121512, 85
15916, -121103, 85
15917, -120882, 85
15918, -120648, 85
15919, -120363, 85
15920, -120000, 85
15921, -119540, 85
15922, -119207, 85
15923, -118886, 85
15924, -118534, 85
15925, -116631, 85
15926, -117328, 85
15927, -117782, 85
15928, -118386, 85
15929, -119671, 85
15930, -119889, 85
15931, -120153, 85
15932, -120294, 85
15933, -120511, 85
15934, -120531, 85
15935, -120774, 85
15936, -120729, 85
15937, -120813, 85
15938, -120790, 85
15939, -120718, 85
15940, -120847, 85
15941, -120736, 85
15942, -120909, 85
15943, -120815, 85
15944, -120921, 85
15945, -120978, 85
15946, -121043, 85
15947, -120996, 85
15948, -121184, 85
15949, -121269, 85
15950, -115173, 85
15951, -114806, 85
15952, -114746, 85
15953, -114216, 85
15954, -112863, 85
15955, -112856, 85
15956, -112856, 85
15957, -113265, 85
15958, -113525, 85
15959, -114087, 85
15960, -114392, 85
15961, -115309, 85
15962, -116030, 85
15963, -116700, 85
15964, -117340, 85
15965, -117779, 85
15966, -118552, 85
15967, -119026, 85
15968, -119611, 85
15969, -120037, 85
15970, -120337, 85
15971, -120741, 85
15972, -121060, 85
15973, -121455, 85
15974, -121630, 85
15975, -121598, 85
15976, -121329, 85
15977, -121277, 85
15978, -121224, 85
15979, -120957, 85
15980, -120718, 85
15981, -120576, 85
15982, -120433, 85
15983, -120094, 85
15984, -119839, 85
15985, -119634, 85
15986, -119413, 85
15987, -118970, 85
15988, -118686, 85
15989, -118319, 85
15990, -118015, 85
15991, -117838, 85
15992, -117237, 85
15993, -117147, 85
15994, -116909, 85
15995, -116464, 85
15996, -116072, 85
15997, -115651, 85
15998, -115365, 85
15999, -115001, 85
16000, -120629, 85
16001, -120646, 85
16002, -120827, 85
16003, -120845, 85
16004, -120861, 85
16005, -120971, 85
16006, -120794, 85
16007, -120810, 85
16008, -121059, 85
16009, -121000, 85
16010, -120953, 85
16011, -120884, 85
16012, -120862, 85
16013, -120795, 85
16014, -120992, 85
16015, -120906, 85
16016, -120705, 85
16017, -120589, 85
16018, -120725, 85
16019, -120572, 85
16020, -120304, 85
16021, -119967, 85
16022, -119903, 85
16023, -119815, 85
16024, -119606, 85
16025, -111203, 85
16026, -111025, 85
16027, -110672, 85
16028, -110406, 85
16029, -110187, 85
16030, -110019, 85
16031, -110169, 85
16032, -110223, 85
16033, -110650, 85
16034, -111000, 85
16035, -111482, 85
16036, -111875, 85
16037, -112298, 85
16038, -112708, 85
16039, -113039, 85
16040, -114324, 85
16041, -114577, 85
16042, -114859, 85
16043, -114988, 85
16044, -115121, 85
16045, -115068, 85
16046, -115205, 85
16047, -114981, 85
16048, -114717, 85
16049, -114815, 85
16050, -106207, 84
16051, -104829, 84
16052, -104829, 84
16053, -104388, 84
16054, -103945, 84
16055, -103690, 84
16056, -103304, 84
16057, -102941, 84
16058, -102467, 84
16059, -102430, 84
16060, -102174, 84
16061, -102314, 84
16062, -102628, 84
16063, -102822, 84
16064, -103407, 84
16065, -103798, 84
16066, -104191, 84
16067, -104558, 84
16068, -104896, 84
16069, -105279, 84
16070, -105388, 84
16071, -105638, 84
16072, -105998, 84
16073, -106061, 84
16074, -106367, 84
16075, -106668, 84
16076, -106406, 84
16077, -106008, 84
16078, -106139, 84
16079, -106027, 84
16080, -105773, 84
16081, -105622, 84
16082, -105687, 84
16083, -105407, 84
16084, -105386, 84
16085, -105137, 84
16086, -105160, 84
16087, -105005, 84
16088, -104729, 84
16089, -104675, 84
16090, -104431, 84
16091, -104187, 84
16092, -103982, 84
16093, -103647, 84
16094, -103426, 84
16095, -103345, 84
16096, -102875, 84
16097, -102694, 84
16098, -102241, 84
16099, -101780, 84
16100, -93946, 84
16101, -94645, 84
16102, -94939, 84
16103, -95327, 84
16104, -95639, 84
16105, -96137, 84
16106, -96081, 84
16107, -96477, 84
16108, -96643, 84
16109, -96920, 84
16110, -96755, 84
16111, -96880, 84
16112, -96917, 84
16113, -97021, 84
16114, -97114, 84
16115, -97005, 84
16116, -96999, 84
16117, -96713, 84
16118, -96542, 84
16119, -96310, 84
16120, -96445, 84
16121, -96435, 84
16122, -96224, 84
16123, -96164, 84
16124, -96237, 84
16125, -96310, 84
16126, -96236, 84
16127, -96196, 84
16128, -96074, 84
16129, -96263, 84
16130, -96045, 84
16131, -95824, 84
16132, -95792, 84
16133, -95616, 84
16134, -95430, 84
16135, -95143, 84
16136, -94069, 84
16137, -94069, 84
16138, -94017, 84
16139, -93733, 84
16140, -93536, 84
16141, -93120, 84
16142, -93048, 84
16143, -92719, 84
16144, -92387, 84
16145, -92332, 84
16146, -91816, 84
16147, -91648, 84
16148, -91329, 84
16149, -91168, 84
16150, -89275, 84
16151, -89346, 84
16152, -89743, 84
16153, -89981, 84
16154, -90163, 84
16155, -90604, 84
16156, -90812, 84
16157, -91004, 84
16158, -90949, 84
16159, -91203, 84
16160, -91105, 84
16161, -91243, 84
16162, -91267, 84
16163, -91167, 84
16164, -91038, 84
16165, -90968, 84
16166, -90729, 84
16167, -90644, 84
16168, -90848, 84
16169, -90692, 84
16170, -90587, 84
16171, -90473, 84
16172, -90495, 84
16173, -90641, 84
16174, -90595, 84
16175, -86683, 84
16176, -86409, 84
16177, -86071, 84
16178, -85939, 84
16179, -85520, 84
16180, -85182, 84
16181, -84933, 84
16182, -84725, 84
16183, -84349, 84
16184, -83827, 84
16185, -83582, 84
16186, -83104, 84
16187, -82718, 84
16188, -82769, 84
16189, -82237, 84
16190, -81899, 84
16191, -81672, 84
16192, -81414, 84
16193, -81050, 84
16194, -80467, 84
16195, -80155, 84
16196, -80099, 84
16197, -80464, 84
16198, -80479, 84
16199, -80839, 84
16200, -86357, 84
16201, -86280, 84
16202, -86207, 84
16203, -86018, 84
16204, -85947, 84
16205, -86017, 84
16206, -85827, 84
16207, -85934, 84
16208, -86043, 84
16209, -85927, 84
16210, -85994, 84
16211, -85934, 84
16212, -85689, 84
16213, -85400, 84
16214, -85623, 84
16215, -85517, 84
16216, -85286, 84
16217, -85136, 84
16218, -84918, 84
16219, -84531, 84
16220, -84513, 84
16221, -84578, 84
16222, -84355, 84
16223, -84333, 84
16224, -84240, 84
16225, -76699, 84
16226, -76452, 84
16227, -76599, 84
16228, -76947, 84
16229, -77087, 84
16230, -77477, 84
16231, -77945, 84
16232, -78516, 84
16233, -78563, 84
16234, -79077, 84
16235, -79845, 84
16236, -80137, 84
16237, -80306, 84
16238, -80674, 84
16239, -80915, 84
16240, -81037, 84
16241, -81438, 84
16242, -81552, 84
16243, -81629, 84
16244, -81600, 84
16245, -81747, 84
16246, -81936, 84
16247, -81780, 84
16248, -81741, 84
16249, -81649, 84
16250, -79875, 84
16251, -79635, 84
16252, -79737, 84
16253, -79581, 84
16254, -79141, 84
16255, -78983, 84
16256, -78632, 84
16257, -78484, 84
16258, -78183, 84
16259, -78257, 84
16260, -78077, 84
16261, -77675, 84
16262, -77417, 84
16263, -77051, 84
16264, -76694, 84
16265, -76494, 84
16266, -76269, 84
16267, -75889, 84
16268, -75580, 84
16269, -75327, 84
16270, -74952, 84
16271, -74643, 84
16272, -74357, 84
16273, -73955, 84
16274, -73692, 84
16275, -72094, 84
16276, -72702, 84
16277, -73047, 84
16278, -73199, 84
16279, -73800, 84
16280, -74277, 84
16281, -74556, 84
16282, -75047, 84
16283, -75261, 84
16284, -75531, 84
16285, -75557, 84
16286, -75685, 84
16287, -75859, 84
16288, -76090, 84
16289, -76018, 84
16290, -75982, 84
16291, -75959, 84
16292, -75927, 84
16293, -75775, 84
16294, -75768, 84
16295, -75706, 84
16296, -75496, 84
16297, -75292, 84
16298, -75322, 84
16299, -75198, 84
16300, -75007, 93
16301, -74946, 93
16302, -75006, 93
16303, -74875, 93
16304, -74959, 93
16305, -74860, 93
16306, -74660, 93
16307, -74385, 93
16308, -74349, 93
16309, -74075, 93
16310, -73887, 93
16311, -73992, 93
16312, -73549, 93
16313, -73678, 93
16314, -73629, 93
16315, -73460, 93
16316, -73357, 93
16317, -73156, 93
16318, -72963, 93
16319, -72731, 93
16320, -72636, 93
16321, -72457, 93
16322, -72101, 93
16323, -71885, 93
16324, -71560, 93
16325, -71320, 93
16326, -71092, 93
16327, -70853, 93
16328, -70528, 93
16329, -70335, 93
16330, -70009, 93
16331, -69809, 93
16332, -69389, 93
16333, -69181, 93
16334, -69018, 93
16335, -68771, 93
16336, -68338, 93
16337, -67909, 93
16338, -67457, 93
16339, -67326, 93
16340, -67138, 93
16341, -66804, 93
16342, -66694, 93
16343, -66529, 93
16344, -66561, 93
16345, -66579, 93
16346, -66797, 93
16347, -67336, 93
16348, -67386, 93
16349, -68013, 93
16350, -68282, 93
16351, -68519, 93
16352, -68673, 93
16353, -69074, 93
16354, -69355, 93
16355, -69615, 93
16356, -69657, 93
16357, -69780, 93
16358, -69784, 93
16359, -69966, 93
16360, -69977, 93
16361, -70140, 93
16362, -69968, 93
16363, -69933, 93
16364, -69900, 93
16365, -69721, 93
16366, -69878, 93
16367, -69675, 93
16368, -69645, 93
16369, -69581, 93
16370, -69437, 93
16371, -69375, 93
16372, -69249, 93
16373, -69326, 93
16374, -69250, 93
16375, -69197, 93
16376, -69118, 93
16377, -69122, 93
16378, -69072, 93
16379, -69017, 93
16380, -68794, 93
16381, -68513, 93
16382, -68191, 93
16383, -68118, 93
16384, -68100, 93
16385, -67843, 93
16386, -67517, 93
16387, -67430, 93
16388, -67085, 93
16389, -66777, 93
16390, -66763, 93
16391, -66610, 93
16392, -66457, 93
16393, -66417, 93
16394, -66045, 93
16395, -65804, 93
16396, -65662, 93
16397, -65319, 93
16398, -65098, 93
16399, -64920, 93
16400, -64691, 93
16401, -64545, 93
16402, -64250, 93
16403, -63986, 93
16404, -63717, 93
16405, -63227, 93
16406, -63036, 93
16407, -63305, 93
16408, -63209, 93
16409, -63671, 93
16410, -63757, 93
16411, -64244, 93
16412, -64688, 93
16413, -64985, 93
16414, -65189, 93
16415, -65678, 93
16416, -65727, 93
16417, -65921, 93
16418, -66301, 93
16419, -66698, 93
16420, -66637, 93
16421, -66870, 93
16422, -67100, 93
16423, -67198, 93
16424, -67151, 93
16425, -67091, 93
16426, -66946, 93
16427, -67027, 93
16428, -67070, 93
16429, -66978, 93
16430, -66915, 93
16431, -66681, 93
16432, -66719, 93
16433, -66722, 93
16434, -66753, 93
16435, -66377, 93
16436, -66446, 93
16437, -66342, 93
16438, -66233, 93
16439, -66253, 93
16440, -66249, 93
16441, -66120, 93
16442, -66039, 93
16443, -66103, 93
16444, -65767, 93
16445, -65731, 93
16446, -65569, 93
16447, -65449, 93
16448, -65580, 93
16449, -65398, 93
16450, -65128, 93
16451, -64974, 93
16452, -64793, 93
16453, -64554, 93
16454, -64285, 93
16455, -64127, 93
16456, -63836, 93
16457, -63698, 93
16458, -63484, 93
16459, -63248, 93
16460, -63243, 93
16461, -62941, 93
16462, -62620, 93
16463, -62315, 93
16464, -62071, 93
16465, -61865, 93
16466, -61606, 93
16467, -61475, 93
16468, -61379, 93
16469, -61660, 93
16470, -61808, 93
16471, -62140, 93
16472, -62471, 93
16473, -63133, 93
16474, -63611, 93
16475, -67781, 96
16476, -67774, 96
16477, -67805, 96
16478, -67954, 96
16479, -67999, 96
16480, -67996, 96
16481, -68054, 96
16482, -67952, 96
16483, -67963, 96
16484, -67778, 96
16485, -67975, 96
16486, -67889, 96
16487, -68058, 96
16488, -67960, 96
16489, -68016, 96
16490, -68047, 96
16491, -68181, 96
16492, -67788, 96
16493, -67788, 96
16494, -67838, 96
16495, -67761, 96
16496, -67806, 96
16497, -67734, 96
16498, -67350, 96
16499, -67098, 96
16500, -66967, 96
16501, -66849, 96
16502, -66665, 96
16503, -66601, 96
16504, -66398, 96
16505, -66370, 96
16506, -66024, 96
16507, -65779, 96
16508, -65717, 96
16509, -65243, 96
16510, -64992, 96
16511, -64858, 96
16512, -64663, 96
16513, -65054, 96
16514, -65384, 96
16515, -66103, 96
16516, -66560, 96
16517, -66922, 96
16518, -67418, 96
16519, -68196, 96
16520, -68936, 96
16521, -69382, 96
16522, -70166, 96
16523, -70795, 96
16524, -71386, 96
16525, -75029, 96
16526, -75054, 96
16527, -75276, 96
16528, -75582, 96
16529, -75904, 96
16530, -75908, 96
16531, -75710, 96
16532, -75858, 96
16533, -75601, 96
16534, -75561, 96
16535, -75734, 96
16536, -75714, 96
16537, -75788, 96
16538, -75534, 96
16539, -75700, 96
16540, -75594, 96
16541, -75542, 96
16542, -75328, 96
16543, -75357, 96
16544, -75021, 96
16545, -75040, 96
16546, -74914, 96
16547, -74680, 96
16548, -74553, 96
16549, -74368, 96
16550, -80312, 96
16551, -80678, 96
16552, -81206, 96
16553, -81726, 96
16554, -82012, 96
16555, -82241, 96
16556, -82461, 96
16557, -82745, 96
16558, -82776, 96
16559, -83086, 96
16560, -83108, 96
16561, -83282, 96
16562, -83506, 96
16563, -83735, 96
16564, -83605, 96
16565, -83648, 96
16566, -83884, 96
16567, -83878, 96
16568, -84192, 96
16569, -84120, 96
16570, -84189, 96
16571, -84374, 96
16572, -84484, 96
16573, -84547, 96
16574, -84601, 96
16575, -81813, 96
16576, -81896, 96
16577, -82321, 96
16578, -82619, 96
16579, -83264, 96
16580, -84012, 96
16581, -84757, 96
16582, -85596, 96
16583, -86312, 96
16584, -87103, 96
16585, -87811, 96
16586, -88363, 96
16587, -89046, 96
16588, -89443, 96
16589, -91261, 96
16590, -91261, 96
16591, -91628, 96
16592, -91920, 96
16593, -92001, 96
16594, -92228, 96
16595, -92311, 96
16596, -92397, 96
16597, -92546, 96
16598, -92516, 96
16599, -92713, 96
16600, -92263, 96
16601, -91974, 96
16602, -91804, 96
16603, -91790, 96
16604, -91530, 96
16605, -91277, 96
16606, -91133, 96
16607, -90958, 96
16608, -90565, 96
16609, -90433, 96
16610, -90098, 96
16611, -90021, 96
16612, -89744, 96
16613, -89206, 96
16614, -88792, 96
16615, -88549, 96
16616, -88130, 96
16617, -88004, 96
16618, -87635, 96
16619, -87376, 96
16620, -87015, 96
16621, -87211, 96
16622, -87315, 96
16623, -87633, 96
16624, -88116, 96
16625, -98661, 87
16626, -98839, 87
16627, -98801, 87
16628, -98593, 87
16629, -98713, 87
16630, -98827, 87
16631, -98740, 87
16632, -98682, 87
16633, -98553, 87
16634, -98509, 87
16635, -98314, 87
16636, -98469, 87
16637, -98279, 87
16638, -98106, 87
16639, -97850, 87
16640, -97611, 87
16641, -97346, 87
16642, -96982, 87
16643, -96815, 87
16644, -96694, 87
16645, -96105, 87
16646, -95926, 87
16647, -95925, 87
16648, -95595, 87
16649, -95411, 87
16650, -89729, 87
16651, -90163, 87
16652, -90794, 87
16653, -91308, 87
16654, -91847, 87
16655, -92632, 87
16656, -93317, 87
16657, -93978, 87
16658, -94679, 87
16659, -95165, 87
16660, -95558, 87
16661, -95844, 87
16662, -96485, 87
16663, -96681, 87
16664, -96969, 87
16665, -97181, 87
16666, -97544, 87
16667, -97772, 87
16668, -97845, 87
16669, -98024, 87
16670, -98129, 87
16671, -98417, 87
16672, -98403, 87
16673, -98349, 87
16674, -98367, 87
16675, -96012, 87
16676, -95817, 87
16677, -95462, 87
16678, -95161, 87
16679, -94965, 87
16680, -94517, 87
16681, -94104, 87
16682, -93660, 87
16683, -93206, 87
16684, -92762, 87
16685, -92275, 87
16686, -91771, 87
16687, -91442, 87
16688, -91124, 87
16689, -90332, 87
16690, -90221, 87
16691, -89689, 87
16692, -89352, 87
16693, -88787, 87
16694, -88461, 87
16695, -88236, 87
16696, -87945, 87
16697, -87543, 87
16698, -87163, 87
16699, -86751, 87
16700, -89753, 87
16701, -89763, 87
16702, -89926, 87
16703, -89775, 87
16704, -89881, 87
16705, -89853, 87
16706, -89751, 87
16707, -89701, 87
16708, -89557, 87
16709, -89358, 87
16710, -89334, 87
16711, -88974, 87
16712, -89102, 87
16713, -89075, 87
16714, -88812, 87
16715, -88821, 87
16716, -88821, 87
16717, -88860, 87
16718, -88585, 87
16719, -88460, 87
16720, -88436, 87
16721, -88277, 87
16722, -88053, 87
16723, -87790, 87
16724, -87598, 87
16725, -82784, 87
16726, -82233, 87
16727, -81642, 87
16728, -81356, 87
16729, -80999, 87
16730, -80917, 87
16731, -80525, 87
16732, -80436, 87
16733, -79980, 87
16734, -79655, 87
16735, -79205, 87
16736, -78688, 87
16737, -78429, 87
16738, -78015, 87
16739, -77692, 87
16740, -77344, 87
16741, -76841, 87
16742, -76722, 87
16743, -76631, 87
16744, -76266, 87
16745, -76482, 87
16746, -76889, 87
16747, -77167, 87
16748, -77586, 87
16749, -78001, 87
16750, -78336, 87
16751, -78545, 87
16752, -78859, 87
16753, -79242, 87
16754, -79319, 87
16755, -79471, 87
16756, -79710, 87
16757, -79852, 87
16758, -80022, 87
16759, -80274, 87
16760, -80254, 87
16761, -80438, 87
16762, -80552, 87
16763, -80227, 87
16764, -80190, 87
16765, -80158, 87
16766, -80025, 87
16767, -79934, 87
16768, -79552, 87
16769, -79092, 87
16770, -78822, 87
16771, -78364, 87
16772, -78043, 87
16773, -77760, 87
16774, -77611, 87
16775, -77717, 82
16776, -77460, 82
16777, -77374, 82
16778, -77250, 82
16779, -77194, 82
16780, -77015, 82
16781, -76688, 82
16782, -76653, 82
16783, -76454, 82
16784, -76279, 82
16785, -76204, 82
16786, -75962, 82
16787, -75710, 82
16788, -75488, 82
16789, -75257, 82
16790, -74827, 82
16791, -74804, 82
16792, -74561, 82
16793, -74237, 82
16794, -73855, 82
16795, -73518, 82
16796, -73269, 82
16797, -72812, 82
16798, -72463, 82
16799, -71995, 82
16800, -71957, 82
16801, -71405, 82
16802, -71078, 82
16803, -70850, 82
16804, -70305, 82
16805, -70084, 82
16806, -69782, 82
16807, -69320, 82
16808, -68950, 82
16809, -68677, 82
16810, -68217, 82
16811, -67759, 82
16812, -67485, 82
16813, -67020, 82
16814, -66671, 82
16815, -66277, 82
16816, -65760, 82
16817, -65560, 82
16818, -65176, 82
16819, -65156, 82
16820, -65279, 82
16821, -65328, 82
16822, -65615, 82
16823, -65898, 82
16824, -66224, 82
16825, -66812, 82
16826, -67080, 82
16827, -67600, 82
16828, -67840, 82
16829, -67902, 82
16830, -68382, 82
16831, -68618, 82
16832, -68934, 82
16833, -68909, 82
16834, -68985, 82
16835, -69210, 82
16836, -69407, 82
16837, -69422, 82
16838, -69250, 82
16839, -69430, 82
16840, -69419, 82
16841, -69487, 82
16842, -69328, 82
16843, -69175, 82
16844, -69042, 82
16845, -68986, 82
16846, -68957, 82
16847, -68894, 82
16848, -68484, 82
16849, -68476, 82
16850, -68212, 82
16851, -68212, 82
16852, -68251, 82
16853, -67949, 82
16854, -67786, 82
16855, -67726, 82
16856, -67434, 82
16857, -67372, 82
16858, -67195, 82
16859, -66944, 82
16860, -66767, 82
16861, -66695, 82
16862, -66468, 82
16863, -66284, 82
16864, -66150, 82
16865, -65897, 82
16866, -65660, 82
16867, -65117, 82
16868, -65020, 82
16869, -65059, 82
16870, -64695, 82
16871, -64195, 82
16872, -63949, 82
16873, -63579, 82
16874, -63207, 82
16875, -61628, 82
16876, -61628, 82
16877, -61373, 82
16878, -61163, 82
16879, -60825, 82
16880, -60645, 82
16881, -60294, 82
16882, -59874, 82
16883, -59542, 82
16884, -59163, 82
16885, -58786, 82
16886, -58581, 82
16887, -58235, 82
16888, -58201, 82
16889, -58211, 82
16890, -58343, 82
16891, -58660, 82
16892, -59127, 82
16893, -59724, 82
16894, -60299, 82
16895, -60785, 82
16896, -61312, 82
16897, -61807, 82
16898, -62258, 82
16899, -62559, 82
16900, -62961, 82
16901, -63031, 82
16902, -63531, 82
16903, -63789, 82
16904, -63855, 82
16905, -64131, 82
16906, -64048, 82
16907, -64167, 82
16908, -64432, 82
16909, -64394, 82
16910, -64392, 82
16911, -64406, 82
16912, -64432, 82
16913, -64601, 82
16914, -64377, 82
16915, -64566, 82
16916, -64250, 82
16917, -64028, 82
16918, -64022, 82
16919, -64043, 82
16920, -64205, 82
16921, -64220, 82
16922, -64006, 82
16923, -63905, 82
16924, -63992, 82
16925, -62066, 87
16926, -61957, 87
16927, -61758, 87
16928, -61377, 87
16929, -61322, 87
16930, -60717, 87
16931, -60517, 87
16932, -60258, 87
16933, -59820, 87
16934, -59853, 87
16935, -59644, 87
16936, -59396, 87
16937, -59029, 87
16938, -58831, 87
16939, -58492, 87
16940, -58354, 87
16941, -57976, 87
16942, -57533, 87
16943, -57143, 87
16944, -57040, 87
16945, -56809, 87
16946, -56703, 87
16947, -56239, 87
16948, -55823, 87
16949, -55622, 87
16950, -55604, 87
16951, -56043, 87
16952, -56327, 87
16953, -56821, 87
16954, -57857, 87
16955, -58258, 87
16956, -58712, 87
16957, -59364, 87
16958, -59749, 87
16959, -60087, 87
16960, -60509, 87
16961, -61270, 87
16962, -61517, 87
16963, -61755, 87
16964, -61920, 87
16965, -62098, 87
16966, -62517, 87
16967, -62544, 87
16968, -62503, 87
16969, -62738, 87
16970, -63055, 87
16971, -63047, 87
16972, -63093, 87
16973, -63249, 87
16974, -63119, 87
16975, -63533, 87
16976, -63354, 87
16977, -63285, 87
16978, -63386, 87
16979, -63405, 87
16980, -63460, 87
16981, -63326, 87
16982, -63232, 87
16983, -63022, 87
16984, -63002, 87
16985, -63134, 87
16986, -62989, 87
16987, -62671, 87
16988, -62768, 87
16989, -62564, 87
16990, -62586, 87
16991, -62263, 87
16992, -62101, 87
16993, -61945, 87
16994, -61722, 87
16995, -61793, 87
16996, -61503, 87
16997, -61172, 87
16998, -60986, 87
16999, -60752, 87
17000, -56933, 87
17001, -57233, 87
17002, -57630, 87
17003, -58401, 87
17004, -59005, 87
17005, -59450, 87
17006, -59628, 87
17007, -60173, 87
17008, -60627, 87
17009, -60960, 87
17010, -61258, 87
17011, -61607, 87
17012, -61880, 87
17013, -61975, 87
17014, -61929, 87
17015, -62308, 87
17016, -62308, 87
17017, -62478, 87
17018, -62450, 87
17019, -62499, 87
17020, -62411, 87
17021, -62365, 87
17022, -62281, 87
17023, -62476, 87
17024, -62206, 87
17025, -61905, 87
17026, -61917, 87
17027, -61884, 87
17028, -61666, 87
17029, -61704, 87
17030, -61610, 87
17031, -61651, 87
17032, -61467, 87
17033, -61349, 87
17034, -61215, 87
17035, -61157, 87
17036, -60665, 87
17037, -60545, 87
17038, -60439, 87
17039, -60555, 87
17040, -60337, 87
17041, -60116, 87
17042, -60029, 87
17043, -59700, 87
17044, -59441, 87
17045, -59215, 87
17046, -59025, 87
17047, -58487, 87
17048, -58203, 87
17049, -58056, 87
17050, -57500, 99
17051, -57052, 99
17052, -56804, 99
17053, -56396, 99
17054, -56092, 99
17055, -55688, 99
17056, -55494, 99
17057, -55147, 99
17058, -54864, 99
17059, -54314, 99
17060, -54114, 99
17061, -54003, 99
17062, -53853, 99
17063, -53724, 99
17064, -53841, 99
17065, -54034, 99
17066, -54321, 99
17067, -54634, 99
17068, -54859, 99
17069, -55362, 99
17070, -55659, 99
17071, -56129, 99
17072, -56421, 99
17073, -56639, 99
17074, -56998, 99
17075, -56691, 99
17076, -56473, 99
17077, -56376, 99
17078, -56291, 99
17079, -56122, 99
17080, -56087, 99
17081, -55634, 99
17082, -55605, 99
17083, -55510, 99
17084, -55160, 99
17085, -54981, 99
17086, -54614, 99
17087, -54320, 99
17088, -54192, 99
17089, -53878, 99
17090, -53581, 99
17091, -53351, 99
17092, -53024, 99
17093, -52727, 99
17094, -52393, 99
17095, -52094, 99
17096, -52011, 99
17097, -51303, 99
17098, -51153, 99
17099, -50680, 99
17100, -49541, 99
17101, -48939, 99
17102, -48609, 99
17103, -48463, 99
17104, -48699, 99
17105, -48732, 99
17106, -48654, 99
17107, -49126, 99
17108, -49268, 99
17109, -49656, 99
17110, -49998, 99
17111, -50344, 99
17112, -50691, 99
17113, -51103, 99
17114, -51402, 99
17115, -51405, 99
17116, -51738, 99
17117, -52066, 99
17118, -52182, 99
17119, -52149, 99
17120, -52128, 99
17121, -52046, 99
17122, -52113, 99
17123, -51910, 99
17124, -51978, 99
17125, -49271, 99
17126, -49066, 99
17127, -48646, 99
17128, -48411, 99
17129, -48305, 99
17130, -48023, 99
17131, -47897, 99
17132, -47653, 99
17133, -47510, 99
17134, -47150, 99
17135, -47051, 99
17136, -46675, 99
17137, -46641, 99
17138, -46447, 99
17139, -46192, 99
17140, -45892, 99
17141, -44816, 99
17142, -44816, 99
17143, -45191, 99
17144, -45287, 99
17145, -45366, 99
17146, -45496, 99
17147, -45852, 99
17148, -45936, 99
17149, -46379, 99
17150, -48856, 99
17151, -49015, 99
17152, -49336, 99
17153, -49721, 99
17154, -49853, 99
17155, -50068, 99
17156, -50030, 99
17157, -50270, 99
17158, -50290, 99
17159, -50047, 99
17160, -50158, 99
17161, -50191, 99
17162, -50053, 99
17163, -49935, 99
17164, -49763, 99
17165, -49593, 99
17166, -49266, 99
17167, -48963, 99
17168, -49136, 99
17169, -48808, 99
17170, -48526, 99
17171, -48662, 99
17172, -48432, 99
17173, -48352, 99
17174, -48076, 99
17175, -47597, 99
17176, -47479, 99
17177, -46959, 99
17178, -46879, 99
17179, -47144, 99
17180, -47025, 99
17181, -46967, 99
17182, -46727, 99
17183, -46594, 99
17184, -46329, 99
17185, -46171, 99
17186, -46049, 99
17187, -45672, 99
17188, -45502, 99
17189, -45225, 99
17190, -45108, 99
17191, -44862, 99
17192, -44668, 99
17193, -44375, 99
17194, -44250, 99
17195, -44277, 99
17196, -44231, 99
17197, -44595, 99
17198, -44929, 99
17199, -45161, 99
17200, -47819, 101
17201, -47552, 101
17202, -47557, 101
17203, -47521, 101
17204, -47493, 101
17205, -46980, 101
17206, -47016, 101
17207, -47194, 101
17208, -47105, 101
17209, -46782, 101
17210, -46800, 101
17211, -46690, 101
17212, -46266, 101
17213, -46268, 101
17214, -46092, 101
17215, -46204, 101
17216, -45813, 101
17217, -45678, 101
17218, -45474, 101
17219, -45203, 101
17220, -45215, 101
17221, -44968, 101
17222, -44667, 101
17223, -44456, 101
17224, -44318, 101
17225, -42685, 101
17226, -42382, 101
17227, -42494, 101
17228, -42456, 101
17229, -42296, 101
17230, -42723, 101
17231, -43090, 101
17232, -43246, 101
17233, -43341, 101
17234, -43830, 101
17235, -44533, 101
17236, -44983, 101
17237, -45365, 101
17238, -45877, 101
17239, -46007, 101
17240, -46379, 101
17241, -46702, 101
17242, -46764, 101
17243, -47088, 101
17244, -47335, 101
17245, -47399, 101
17246, -47415, 101
17247, -47466, 101
17248, -47678, 101
17249, -47748, 101
17250, -48620, 101
17251, -48523, 101
17252, -48722, 101
17253, -48719, 101
17254, -48492, 101
17255, -48265, 101
17256, -48089, 101
17257, -47745, 101
17258, -47293, 101
17259, -46951, 101
17260, -46447, 101
17261, -45907, 101
17262, -45368, 101
17263, -45064, 101
17264, -44736, 101
17265, -44318, 101
17266, -44003, 101
17267, -44218, 101
17268, -44225, 101
17269, -44543, 101
17270, -44779, 101
17271, -44987, 101
17272, -45316, 101
17273, -45705, 101
17274, -46279, 101
17275, -48521, 101
17276, -48952, 101
17277, -49084, 101
17278, -49227, 101
17279, -49428, 101
17280, -49524, 101
17281, -49664, 101
17282, -49448, 101
17283, -49610, 101
17284, -49735, 101
17285, -49700, 101
17286, -49405, 101
17287, -49344, 101
17288, -49161, 101
17289, -49166, 101
17290, -49149, 101
17291, -49081, 101
17292, -48974, 101
17293, -48838, 101
17294, -48604, 101
17295, -48725, 101
17296, -48565, 101
17297, -48490, 101
17298, -48561, 101
17299, -48530, 101
17300, -47552, 101
17301, -47612, 101
17302, -47615, 101
17303, -47210, 101
17304, -46963, 101
17305, -46934, 101
17306, -46641, 101
17307, -46354, 101
17308, -46324, 101
17309, -46052, 101
17310, -46013, 101
17311, -46174, 101
17312, -46253, 101
17313, -46604, 101
17314, -46991, 101
17315, -47597, 101
17316, -48238, 101
17317, -48748, 101
17318, -49224, 101
17319, -49836, 101
17320, -50876, 101
17321, -51438, 101
17322, -52201, 101
17323, -52710, 101
17324, -53353, 101
17325, -57712, 101
17326, -57831, 101
17327, -57718, 101
17328, -57723, 101
17329, -57721, 101
17330, -57898, 101
17331, -57886, 101
17332, -57791, 101
17333, -57842, 101
17334, -57723, 101
17335, -57673, 101
17336, -57456, 101
17337, -57452, 101
17338, -57388, 101
17339, -57244, 101
17340, -57075, 101
17341, -56930, 101
17342, -56786, 101
17343, -56726, 101
17344, -56445, 101
17345, -56481, 101
17346, -56258, 101
17347, -55986, 101
17348, -55858, 101
17349, -55481, 101
17350, -54658, 101
17351, -54734, 101
17352, -55060, 101
17353, -55526, 101
17354, -55767, 101
17355, -56314, 101
17356, -56635, 101
17357, -57269, 101
17358, -57619, 101
17359, -58160, 101
17360, -58574, 101
17361, -59194, 101
17362, -59617, 101
17363, -59719, 101
17364, -60274, 101
17365, -60381, 101
17366, -60468, 101
17367, -60575, 101
17368, -60740, 101
17369, -60810, 101
17370, -60584, 101
17371, -60674, 101
17372, -60527, 101
17373, -60425, 101
17374, -60168, 101
17375, -59583, 101
17376, -59511, 101
17377, -59449, 101
17378, -59309, 101
17379, -58941, 101
17380, -58877, 101
17381, -58725, 101
17382, -58575, 101
17383, -58262, 101
17384, -58211, 101
17385, -57916, 101
17386, -57850, 101
17387, -57489, 101
17388, -57212, 101
17389, -56945, 101
17390, -56683, 101
17391, -56502, 101
17392, -56325, 101
17393, -56029, 101
17394, -55815, 101
17395, -55396, 101
17396, -55006, 101
17397, -54730, 101
17398, -54233, 101
17399, -54027, 101
17400, -47157, 101
17401, -47329, 101
17402, -47351, 101
17403, -47540, 101
17404, -47787, 101
17405, -47904, 101
17406, -48154, 101
17407, -48205, 101
17408, -48262, 101
17409, -48582, 101
17410, -48795, 101
17411, -48814, 101
17412, -48850, 101
17413, -48526, 101
17414, -48818, 101
17415, -48944, 101
17416, -48652, 101
17417, -48666, 101
17418, -48515, 101
17419, -48396, 101
17420, -48098, 101
17421, -48113, 101
17422, -48148, 101
17423, -47771, 101
17424, -47440, 101
17425, -46407, 101
17426, -45967, 101
17427, -45497, 101
17428, -45318, 101
17429, -44967, 101
17430, -44996, 101
17431, -44694, 101
17432, -44065, 101
17433, -43902, 101
17434, -43610, 101
17435, -43269, 101
17436, -42852, 101
17437, -42567, 101
17438, -42296, 101
17439, -41740, 101
17440, -41594, 101
17441, -41214, 101
17442, -40762, 101
17443, -40492, 101
17444, -40251, 101
17445, -39561, 101
17446, -39244, 101
17447, -38676, 101
17448, -38460, 101
17449, -38142, 101
17450, -36552, 101
17451, -36296, 101
17452, -36083, 101
17453, -35778, 101
17454, -35109, 101
17455, -34973, 101
17456, -34560, 101
17457, -34237, 101
17458, -33873, 101
17459, -33469, 101
17460, -32973, 101
17461, -32614, 101
17462, -32231, 101
17463, -31794, 101
17464, -31214, 101
17465, -30841, 101
17466, -30439, 101
17467, -29988, 101
17468, -29711, 101
17469, -29399, 101
17470, -28868, 101
17471, -28969, 101
17472, -28445, 101
17473, -28359, 101
17474, -28209, 101
17475, -26840, 101
17476, -26467, 101
17477, -26308, 101
17478, -25982, 101
17479, -25656, 101
17480, -25475, 101
17481, -24798, 101
17482, -24854, 101
17483, -24716, 101
17484, -24460, 101
17485, -24302, 101
17486, -24035, 101
17487, -24047, 101
17488, -23752, 101
17489, -23478, 101
17490, -23196, 101
17491, -22808, 101
17492, -22391, 101
17493, -22160, 101
17494, -21837, 101
17495, -21675, 101
17496, -21209, 101
17497, -20922, 101
17498, -20380, 101
17499, -20411, 101
17500, -18865, 95
17501, -18482, 95
17502, -18217, 95
17503, -17988, 95
17504, -17748, 95
17505, -17176, 95
17506, -16960, 95
17507, -16615, 95
17508, -16389, 95
17509, -16185, 95
17510, -15887, 95
17511, -15596, 95
17512, -15214, 95
17513, -14793, 95
17514, -14516, 95
17515, -14088, 95
17516, -13807, 95
17517, -13412, 95
17518, -13103, 95
17519, -12839, 95
17520, -12468, 95
17521, -12126, 95
17522, -11707, 95
17523, -11192, 95
17524, -10635, 95
17525, -9432, 95
17526, -9092, 95
17527, -9295, 95
17528, -9339, 95
17529, -9327, 95
17530, -9610, 95
17531, -9454, 95
17532, -9524, 95
17533, -9608, 95
17534, -9759, 95
17535, -9530, 95
17536, -9546, 95
17537, -9766, 95
17538, -9719, 95
17539, -9670, 95
17540, -9620, 95
17541, -9524, 95
17542, -9570, 95
17543, -9370, 95
17544, -9429, 95
17545, -9118, 95
17546, -8972, 95
17547, -9053, 95
17548, -8847, 95
17549, -8635, 95
17550, -4995, 95
17551, -4843, 95
17552, -4635, 95
17553, -4325, 95
17554, -4244, 95
17555, -3990, 95
17556, -3707, 95
17557, -3650, 95
17558, -3460, 95
17559, -3108, 95
17560, -2717, 95
17561, -2641, 95
17562, -2344, 95
17563, -2225, 95
17564, -2007, 95
17565, -1843, 95
17566, -1674, 95
17567, -1287, 95
17568, -960, 95
17569, -837, 95
17570, -502, 95
17571, -300, 95
17572, -127, 95
17573, 257, 95
17574, 625, 95
17575, 1741, 95
17576, 2174, 95
17577, 2122, 95
17578, 2478, 95
17579, 2792, 95
17580, 3173, 95
17581, 3341, 95
17582, 3268, 95
17583, 3481, 95
17584, 3709, 95
17585, 3690, 95
17586, 3561, 95
17587, 3419, 95
17588, 3287, 95
17589, 3119, 95
17590, 2911, 95
17591, 2735, 95
17592, 2546, 95
17593, 2258, 95
17594, 2265, 95
17595, 1989, 95
17596, 1802, 95
17597, 1806, 95
17598, 1645, 95
17599, 1410, 95
17600, 2010, 95
17601, 1886, 95
17602, 2086, 95
17603, 2266, 95
17604, 2477, 95
17605, 2402, 95
17606, 2502, 95
17607, 2687, 95
17608, 2840, 95
17609, 2798, 95
17610, 2834, 95
17611, 2989, 95
17612, 3079, 95
17613, 3290, 95
17614, 3353, 95
17615, 3299, 95
17616, 3426, 95
17617, 3755, 95
17618, 3697, 95
17619, 3579, 95
17620, 3794, 95
17621, 3998, 95
17622, 3982, 95
17623, 4089, 95
17624, 4214, 95
17625, 6936, 88
17626, 6806, 88
17627, 6511, 88
17628, 6450, 88
17629, 6040, 88
17630, 5608, 88
17631, 5304, 88
17632, 4992, 88
17633, 4907, 88
17634, 4770, 88
17635, 4297, 88
17636, 4167, 88
17637, 3889, 88
17638, 3824, 88
17639, 3566, 88
17640, 3576, 88
17641, 3539, 88
17642, 3415, 88
17643, 3355, 88
17644, 3330, 88
17645, 3309, 88
17646, 3127, 88
17647, 3292, 88
17648, 3280, 88
17649, 3404, 88
17650, 3029, 88
17651, 2967, 88
17652, 2951, 88
17653, 3029, 88
17654, 3139, 88
17655, 3065, 88
17656, 2956, 88
17657, 2955, 88
17658, 2700, 88
17659, 2660, 88
17660, 2674, 88
17661, 2704, 88
17662, 2741, 88
17663, 2531, 88
17664, 2451, 88
17665, 2689, 88
17666, 2736, 88
17667, 2631, 88
17668, 2716, 88
17669, 2610, 88
17670, 2646, 88
17671, 2697, 88
17672, 2702, 88
17673, 2721, 88
17674, 2796, 88
17675, 3738, 88
17676, 4017, 88
17677, 4246, 88
17678, 4602, 88
17679, 4683, 88
17680, 4877, 88
17681, 5029, 88
17682, 5170, 88
17683, 5307, 88
17684, 5222, 88
17685, 5029, 88
17686, 4652, 88
17687, 4512, 88
17688, 4160, 88
17689, 4088, 88
17690, 3525, 88
17691, 3410, 88
17692, 3285, 88
17693, 3180, 88
17694, 3046, 88
17695, 2811, 88
17696, 2794, 88
17697, 2536, 88
17698, 2550, 88
17699, 2693, 88
17700, 2240, 88
17701, 2221, 88
17702, 2361, 88
17703, 2608, 88
17704, 2583, 88
17705, 2558, 88
17706, 2604, 88
17707, 2963, 88
17708, 2865, 88
17709, 3243, 88
17710, 3248, 88
17711, 3459, 88
17712, 3790, 88
17713, 4005, 88
17714, 4222, 88
17715, 4562, 88
17716, 4787, 88
17717, 5205, 88
17718, 5422, 88
17719, 5790, 88
17720, 6204, 88
17721, 6775, 88
17722, 7165, 88
17723, 7862, 88
17724, 8001, 88
17725, 8597, 88
17726, 8995, 88
17727, 9296, 88
17728, 9513, 88
17729, 9658, 88
17730, 9769, 88
17731, 9722, 88
17732, 9629, 88
17733, 9549, 88
17734, 9400, 88
17735, 9354, 88
17736, 9037, 88
17737, 8909, 88
17738, 8627, 88
17739, 8322, 88
17740, 8090, 88
17741, 7919, 88
17742, 7406, 88
17743, 7449, 88
17744, 7122, 88
17745, 6955, 88
17746, 6631, 88
17747, 6546, 88
17748, 6272, 88
17749, 6232, 88
17750, 4548, 88
17751, 4247, 88
17752, 3862, 88
17753, 3317, 88
17754, 3037, 88
17755, 2850, 88
17756, 2324, 88
17757, 2051, 88
17758, 1697, 88
17759, 1306, 88
17760, 786, 88
17761, 708, 88
17762, 248, 88
17763, 138, 88
17764, 370, 88
17765, 1028, 88
17766, 1475, 88
17767, 1834, 88
17768, 2025, 88
17769, 1994, 88
17770, 1958, 88
17771, 1963, 88
17772, 2129, 88
17773, 2218, 88
17774, 2263, 88
17775, -3073, 85
17776, -3689, 85
17777, -4266, 85
17778, -4825, 85
17779, -5196, 85
17780, -5534, 85
17781, -5948, 85
17782, -6322, 85
17783, -6830, 85
17784, -6924, 85
17785, -7105, 85
17786, -7191, 85
17787, -7323, 85
17788, -7512, 85
17789, -7562, 85
17790, -7841, 85
17791, -7787, 85
17792, -7937, 85
17793, -8044, 85
17794, -8349, 85
17795, -8451, 85
17796, -8482, 85
17797, -8712, 85
17798, -8925, 85
17799, -9233, 85
17800, -9454, 85
17801, -9643, 85
17802, -9552, 85
17803, -9660, 85
17804, -9618, 85
17805, -9890, 85
17806, -9986, 85
17807, -10068, 85
17808, -9945, 85
17809, -10103, 85
17810, -10171, 85
17811, -10207, 85
17812, -9954, 85
17813, -10221, 85
17814, -9910, 85
17815, -9992, 85
17816, -9859, 85
17817, -9875, 85
17818, -9490, 85
17819, -9727, 85
17820, -9657, 85
17821, -9692, 85
17822, -9641, 85
17823, -9675, 85
17824, -9509, 85
17825, -9945, 85
17826, -10480, 85
17827, -10962, 85
17828, -11448, 85
17829, -12208, 85
17830, -12793, 85
17831, -13404, 85
17832, -14075, 85
17833, -14662, 85
17834, -15223, 85
17835, -15875, 85
17836, -16203, 85
17837, -16634, 85
17838, -16959, 85
17839, -17392, 85
17840, -17631, 85
17841, -17914, 85
17842, -18148, 85
17843, -18432, 85
17844, -18659, 85
17845, -18786, 85
17846, -18958, 85
17847, -19228, 85
17848, -19399, 85
17849, -19534, 85
17850, -21220, 85
17851, -21016, 85
17852, -21050, 85
17853, -21269, 85
17854, -21143, 85
17855, -21227, 85
17856, -21116, 85
17857, -20973, 85
17858, -20904, 85
17859, -20797, 85
17860, -20738, 85
17861, -20410, 85
17862, -20368, 85
17863, -20426, 85
17864, -20050, 85
17865, -19903, 85
17866, -19725, 85
17867, -19605, 85
17868, -19355, 85
17869, -19272, 85
17870, -19196, 85
17871, -18987, 85
17872, -18833, 85
17873, -18737, 85
17874, -18564, 85
17875, -18497, 85
17876, -19118, 85
17877, -19519, 85
17878, -20041, 85
17879, -20522, 85
17880, -21038, 85
17881, -21751, 85
17882, -22325, 85
17883, -22826, 85
17884, -23163, 85
17885, -23677, 85
17886, -24213, 85
17887, -24556, 85
17888, -24781, 85
17889, -24945, 85
17890, -25122, 85
17891, -25386, 85
17892, -25540, 85
17893, -25551, 85
17894, -25730, 85
17895, -25599, 85
17896, -25600, 85
17897, -25633, 85
17898, -25860, 85
17899, -25931, 85
17900, -25963, 82
17901, -26069, 82
17902, -25919, 82
17903, -25685, 82
17904, -26023, 82
17905, -26003, 82
17906, -26174, 82
17907, -26050, 82
17908, -26180, 82
17909, -26157, 82
17910, -26216, 82
17911, -25927, 82
17912, -26022, 82
17913, -26109, 82
17914, -25760, 82
17915, -25665, 82
17916, -25699, 82
17917, -25515, 82
17918, -25277, 82
17919, -25306, 82
17920, -25252, 82
17921, -24930, 82
17922, -24900, 82
17923, -24769, 82
17924, -24510, 82
17925, -21031, 82
17926, -21129, 82
17927, -21675, 82
17928, -22031, 82
17929, -22243, 82
17930, -23313, 82
17931, -23820, 82
17932, -24135, 82
17933, -24758, 82
17934, -25287, 82
17935, -25804, 82
17936, -26199, 82
17937, -26385, 82
17938, -26529, 82
17939, -26893, 82
17940, -27278, 82
17941, -27381, 82
17942, -27600, 82
17943, -27920, 82
17944, -27909, 82
17945, -28134, 82
17946, -28157, 82
17947, -28202, 82
17948, -28339, 82
17949, -28563, 82
17950, -28662, 82
17951, -28566, 82
17952, -28637, 82
17953, -28518, 82
17954, -28190, 82
17955, -28151, 82
17956, -28236, 82
17957, -28051, 82
17958, -27922, 82
17959, -27606, 82
17960, -27522, 82
17961, -27457, 82
17962, -27042, 82
17963, -26912, 82
17964, -26547, 82
17965, -26620, 82
17966, -26473, 82
17967, -26373, 82
17968, -26116, 82
17969, -25990, 82
17970, -25703, 82
17971, -25651, 82
17972, -25414, 82
17973, -25114, 82
17974, -25067, 82
17975, -33124, 82
17976, -33121, 82
17977, -33475, 82
17978, -33555, 82
17979, -33534, 82
17980, -33506, 82
17981, -33775, 82
17982, -33619, 82
17983, -33697, 82
17984, -33696, 82
17985, -33773, 82
17986, -33903, 82
17987, -34030, 82
17988, -34108, 82
17989, -34089, 82
17990, -34123, 82
17991, -34167, 82
17992, -34332, 82
17993, -34303, 82
17994, -34500, 82
17995, -34605, 82
17996, -34577, 82
17997, -34709, 82
17998, -34787, 82
17999, -34790, 82
18000, -34567, 82
18001, -34967, 82
18002, -34760, 82
18003, -34804, 82
18004, -34679, 82
18005, -34811, 82
18006, -34647, 82
18007, -34515, 82
18008, -34358, 82
18009, -34161, 82
18010, -34104, 82
18011, -33997, 82
18012, -33971, 82
18013, -34040, 82
18014, -33769, 82
18015, -33626, 82
18016, -33376, 82
18017, -33128, 82
18018, -32848, 82
18019, -32628, 82
18020, -32250, 82
18021, -32175, 82
18022, -31984, 82
18023, -32025, 82
18024, -31869, 82
18025, -36152, 82
18026, -36407, 82
18027, -36708, 82
18028, -37160, 82
18029, -37576, 82
18030, -37868, 82
18031, -38074, 82
18032, -38451, 82
18033, -38436, 82
18034, -38682, 82
18035, -38829, 82
18036, -38937, 82
18037, -38968, 82
18038, -39075, 82
18039, -39223, 82
18040, -39136, 82
18041, -38989, 82
18042, -39188, 82
18043, -39286, 82
18044, -39183, 82
18045, -39304, 82
18046, -39432, 82
18047, -39532, 82
18048, -39701, 82
18049, -39616, 82
18050, -38385, 79
18051, -38314, 79
18052, -38067, 79
18053, -37822, 79
18054, -37634, 79
18055, -37387, 79
18056, -36989, 79
18057, -37033, 79
18058, -36620, 79
18059, -36562, 79
18060, -36108, 79
18061, -36267, 79
18062, -35919, 79
18063, -35678, 79
18064, -35479, 79
18065, -35284, 79
18066, -35174, 79
18067, -35125, 79
18068, -35231, 79
18069, -35236, 79
18070, -35620, 79
18071, -35825, 79
18072, -36552, 79
18073, -37457, 79
18074, -38160, 79
18075, -39098, 79
18076, -39586, 79
18077, -39802, 79
18078, -40254, 79
18079, -40881, 79
18080, -41071, 79
18081, -41335, 79
18082, -41704, 79
18083, -41619, 79
18084, -41808, 79
18085, -42051, 79
18086, -42051, 79
18087, -42199, 79
18088, -42217, 79
18089, -42373, 79
18090, -42247, 79
18091, -42396, 79
18092, -42444, 79
18093, -42509, 79
18094, -42576, 79
18095, -42745, 79
18096, -42860, 79
18097, -43077, 79
18098, -43077, 79
18099, -43034, 79
18100, -42832, 79
18101, -42744, 79
18102, -42669, 79
18103, -42483, 79
18104, -41920, 79
18105, -41887, 79
18106, -41632, 79
18107, -41438, 79
18108, -41293, 79
18109, -41278, 79
18110, -41172, 79
18111, -41042, 79
18112, -40343, 79
18113, -40283, 79
18114, -40192, 79
18115, -39878, 79
18116, -39624, 79
18117, -39109, 79
18118, -39086, 79
18119, -38997, 79
18120, -38825, 79
18121, -38541, 79
18122, -38235, 79
18123, -37855, 79
18124, -37794, 79
18125, -38941, 79
18126, -39522, 79
18127, -40023, 79
18128, -40489, 79
18129, -40809, 79
18130, -41134, 79
18131, -41572, 79
18132, -41947, 79
18133, -42040, 79
18134, -42245, 79
18135, -42226, 79
18136, -42217, 79
18137, -42348, 79
18138, -42284, 79
18139, -42428, 79
18140, -42269, 79
18141, -42292, 79
18142, -42130, 79
18143, -42030, 79
18144, -42173, 79
18145, -42309, 79
18146, -42385, 79
18147, -42379, 79
18148, -42440, 79
18149, -42257, 79
18150, -42159, 79
18151, -42454, 79
18152, -42299, 79
18153, -41988, 79
18154, -41991, 79
18155, -42017, 79
18156, -42033, 79
18157, -41920, 79
18158, -41474, 79
18159, -41413, 79
18160, -41450, 79
18161, -41368, 79
18162, -41113, 79
18163, -41206, 79
18164, -40927, 79
18165, -40938, 79
18166, -40730, 79
18167, -40522, 79
18168, -40423, 79
18169, -40125, 79
18170, -39950, 79
18171, -39777, 79
18172, -39622, 79
18173, -39345, 79
18174, -38923, 79
18175, -36524, 78
18176, -36244, 78
18177, -36057, 78
18178, -35773, 78
18179, -35550, 78
18180, -35272, 78
18181, -34865, 78
18182, -34774, 78
18183, -34381, 78
18184, -34255, 78
18185, -33835, 78
18186, -33420, 78
18187, -33206, 78
18188, -33049, 78
18189, -33002, 78
18190, -33018, 78
18191, -33163, 78
18192, -33232, 78
18193, -33510, 78
18194, -33810, 78
18195, -34168, 78
18196, -34439, 78
18197, -34673, 78
18198, -35123, 78
18199, -35564, 78
18200, -35760, 78
18201, -35666, 78
18202, -35614, 78
18203, -35445, 78
18204, -35498, 78
18205, -35383, 78
18206, -35456, 78
18207, -35418, 78
18208, -35279, 78
18209, -35332, 78
18210, -34929, 78
18211, -35140, 78
18212, -34980, 78
18213, -34876, 78
18214, -34712, 78
18215, -34612, 78
18216, -34539, 78
18217, -34319, 78
18218, -34078, 78
18219, -33700, 78
18220, -33528, 78
18221, -33180, 78
18222, -33262, 78
18223, -33096, 78
18224, -32860, 78
18225, -32702, 78
18226, -32368, 78
18227, -32347, 78
18228, -32153, 78
18229, -31861, 78
18230, -31739, 78
18231, -31451, 78
18232, -31260, 78
18233, -30984, 78
18234, -30899, 78
18235, -30442, 78
18236, -30279, 78
18237, -30046, 78
18238, -29698, 78
18239, -29541, 78
18240, -29434, 78
18241, -28979, 78
18242, -28997, 78
18243, -28171, 78
18244, -28150, 78
18245, -28044, 78
18246, -27810, 78
18247, -27646, 78
18248, -27771, 78
18249, -27690, 78
18250, -30495, 78
18251, -30705, 78
18252, -30910, 78
18253, -31247, 78
18254, -31090, 78
18255, -31211, 78
18256, -31499, 78
18257, -31489, 78
18258, -31576, 78
18259, -31593, 78
18260, -31483, 78
18261, -31354, 78
18262, -31339, 78
18263, -31310, 78
18264, -31181, 78
18265, -30949, 78
18266, -30775, 78
18267, -30822, 78
18268, -30940, 78
18269, -30945, 78
18270, -30710, 78
18271, -30696, 78
18272, -30735, 78
18273, -30803, 78
18274, -30665, 78
18275, -27763, 78
18276, -27488, 78
18277, -27247, 78
18278, -26940, 78
18279, -26682, 78
18280, -26430, 78
18281, -26143, 78
18282, -25761, 78
18283, -25466, 78
18284, -25177, 78
18285, -24709, 78
18286, -24724, 78
18287, -24561, 78
18288, -24210, 78
18289, -24083, 78
18290, -23749, 78
18291, -23515, 78
18292, -23194, 78
18293, -22992, 78
18294, -22582, 78
18295, -22261, 78
18296, -21976, 78
18297, -21687, 78
18298, -21454, 78
18299, -21004, 78
18300, -24615, 78
18301, -24354, 78
18302, -24354, 78
18303, -24062, 78
18304, -24114, 78
18305, -23937, 78
18306, -24393, 78
18307, -24146, 78
18308, -24052, 78
18309, -24077, 78
18310, -23955, 78
18311, -23821, 78
18312, -23899, 78
18313, -23751, 78
18314, -23827, 78
18315, -23614, 78
18316, -23570, 78
18317, -23223, 78
18318, -23485, 78
18319, -23415, 78
18320, -23501, 78
18321, -23361, 78
18322, -23145, 78
18323, -23101, 78
18324, -22926, 78
18325, -19372, 79
18326, -19199, 79
18327, -18708, 79
18328, -18373, 79
18329, -18305, 79
18330, -17857, 79
18331, -17701, 79
18332, -17434, 79
18333, -17090, 79
18334, -16844, 79
18335, -16780, 79
18336, -16309, 79
18337, -16132, 79
18338, -16140, 79
18339, -16239, 79
18340, -16088, 79
18341, -16231, 79
18342, -16270, 79
18343, -16508, 79
18344, -16524, 79
18345, -17080, 79
18346, -17460, 79
18347, -17726, 79
18348, -18154, 79
18349, -18373, 79
18350, -18545, 79
18351, -18791, 79
18352, -18840, 79
18353, -19029, 79
18354, -19029, 79
18355, -19183, 79
18356, -19201, 79
18357, -19501, 79
18358, -19522, 79
18359, -19395, 79
18360, -19405, 79
18361, -19402, 79
18362, -19342, 79
18363, -19047, 79
